# OpenSignals Text File Format. Version 1
# {"A4:34:F1:21:5F:73": {"sensor": ["RAW", "ECGBIT", "EDABITREV", "RAW", "RAW", "RAW"], "device name": "A4:34:F1:21:5F:73", "column": ["nSeq", "I1", "I2", "O1", "O2", "A1", "A2", "A3", "A4", "A5", "A6"], "sync interval": 2, "time": "17:26:45.870", "comments": "", "device connection": "BLEA4:34:F1:21:5F:73", "channels": [1, 2, 3, 4, 5, 6], "keywords": "", "convertedValues": 0, "mode": 0, "digital IO": [0, 0, 1, 1], "firmware version": 1281, "device": "bitalino_rev", "position": 0, "sampling rate": 100, "label": ["A1", "A2", "A3", "A4", "A5", "A6"], "resolution": [4, 1, 1, 1, 1, 10, 10, 10, 10, 6, 6], "date": "2019-11-5", "special": [{}, {}, {}, {}, {}, {}]}}
# EndOfHeader
0	0	0	0	0	3	513	612	3	0	0	
1	0	0	0	0	0	508	619	3	0	0	
2	0	0	0	0	0	515	612	3	0	0	
3	0	0	0	0	0	507	619	3	0	0	
4	0	0	0	0	3	517	613	3	0	0	
5	0	0	0	0	0	509	620	3	0	0	
6	0	0	0	0	0	519	614	3	0	0	
7	0	0	0	0	0	511	621	3	0	0	
8	0	0	0	0	3	518	615	3	0	0	
9	0	0	0	0	0	512	622	3	0	0	
10	0	0	0	0	0	518	615	3	0	0	
11	0	0	0	0	0	515	623	3	0	0	
12	0	0	0	0	3	536	617	3	0	0	
13	0	0	0	0	0	534	624	3	0	0	
14	0	0	0	0	0	542	617	3	0	0	
15	0	0	0	0	0	537	625	3	0	0	
0	0	0	0	0	3	545	618	3	0	0	
1	0	0	0	0	0	529	624	3	0	0	
2	0	0	0	0	0	534	618	3	0	0	
3	0	0	0	0	0	505	624	3	0	0	
4	0	0	0	0	3	504	619	3	0	0	
5	0	0	0	0	0	495	625	3	0	0	
6	0	0	0	0	0	504	618	3	0	0	
7	0	0	0	0	0	497	624	3	0	0	
8	0	0	0	0	3	475	618	3	0	0	
9	0	0	0	0	0	531	624	3	0	0	
10	0	0	0	0	0	802	616	3	0	0	
11	0	0	0	0	0	1022	623	3	0	0	
12	0	0	0	0	3	844	615	3	0	0	
13	0	0	0	0	0	360	621	3	0	0	
14	0	0	0	0	0	272	615	3	0	0	
15	0	0	0	0	0	355	620	3	0	0	
0	0	0	0	0	3	427	612	3	0	0	
1	0	0	0	0	0	432	620	3	0	0	
2	0	0	0	0	0	448	613	3	0	0	
3	0	0	0	0	0	453	620	3	0	0	
4	0	0	0	0	1	472	614	3	0	0	
5	0	0	0	0	0	475	621	3	0	0	
6	0	0	0	0	0	492	615	3	0	0	
7	0	0	0	0	0	494	623	3	0	0	
8	0	0	0	0	3	507	615	3	0	0	
9	0	0	0	0	0	512	623	3	0	0	
10	0	0	0	0	0	526	616	3	0	0	
11	0	0	0	0	0	529	623	3	0	0	
12	0	0	0	0	3	548	615	3	0	0	
13	0	0	0	0	0	550	622	3	0	0	
14	0	0	0	0	0	567	616	3	0	0	
15	0	0	0	0	0	568	623	3	0	0	
0	0	0	0	0	3	579	616	3	0	0	
1	0	0	0	0	0	571	624	3	0	0	
2	0	0	0	0	0	570	617	3	0	0	
3	0	0	0	0	0	553	624	3	0	0	
4	0	0	0	0	3	543	617	3	0	0	
5	0	0	0	0	0	508	624	3	0	0	
6	0	0	0	0	0	484	617	3	0	0	
7	0	0	0	0	0	449	624	3	0	0	
8	0	0	0	0	3	436	616	3	0	0	
9	0	0	0	0	1	421	624	3	0	0	
10	0	0	0	0	0	428	616	3	0	0	
11	0	0	0	0	0	425	624	3	0	0	
12	0	0	0	0	3	443	616	3	0	0	
13	0	0	0	0	0	444	623	3	0	0	
14	0	0	0	0	0	462	615	3	0	0	
15	0	0	0	0	0	464	623	3	0	0	
0	0	0	0	0	3	482	615	3	0	0	
1	0	0	0	0	1	482	623	3	0	0	
2	0	0	0	0	0	498	616	3	0	0	
3	0	0	0	0	0	494	623	3	0	0	
4	0	0	0	0	3	505	615	3	0	0	
5	0	0	0	0	0	500	623	3	0	0	
6	0	0	0	0	0	508	616	3	0	0	
7	0	0	0	0	0	503	623	3	0	0	
8	0	0	0	0	3	514	615	3	0	0	
9	0	0	0	0	1	506	623	3	0	0	
10	0	0	0	0	0	515	615	3	0	0	
11	0	0	0	0	0	506	623	3	0	0	
12	0	0	0	0	3	513	614	3	0	0	
13	0	0	0	0	0	508	621	3	0	0	
14	0	0	0	0	0	514	614	3	0	0	
15	0	0	0	0	0	509	621	3	0	0	
0	0	0	0	0	0	515	614	3	0	0	
1	0	0	0	0	0	506	621	3	0	0	
2	0	0	0	0	0	512	616	3	0	0	
3	0	0	0	0	0	504	623	3	0	0	
4	0	0	0	0	3	514	616	3	0	0	
5	0	0	0	0	0	511	624	3	0	0	
6	0	0	0	0	0	521	618	3	0	0	
7	0	0	0	0	0	514	626	3	0	0	
8	0	0	0	0	3	522	618	3	0	0	
9	0	0	0	0	0	515	626	3	0	0	
10	0	0	0	0	0	526	619	3	0	0	
11	0	0	0	0	0	516	627	3	0	0	
12	0	0	0	0	3	524	620	3	0	0	
13	0	0	0	0	0	518	628	3	0	0	
14	0	0	0	0	0	524	621	3	0	0	
15	0	0	0	0	0	516	629	3	0	0	
0	0	0	0	0	3	522	622	3	0	0	
1	0	0	0	0	0	515	630	3	0	0	
2	0	0	0	0	0	522	623	3	0	0	
3	0	0	0	0	0	515	632	3	0	0	
4	0	0	0	0	3	523	623	3	0	0	
5	0	0	0	0	0	527	631	3	0	0	
6	0	0	0	0	0	536	621	3	0	0	
7	0	0	0	0	0	531	629	3	0	0	
8	0	0	0	0	3	541	619	3	0	0	
9	0	0	0	0	0	532	625	3	0	0	
10	0	0	0	0	0	533	616	3	0	0	
11	0	0	0	0	0	517	623	3	0	0	
12	0	0	0	0	3	512	613	3	0	0	
13	0	0	0	0	0	496	620	3	0	0	
14	0	0	0	0	0	506	611	3	0	0	
15	0	0	0	0	0	501	618	3	0	0	
0	0	0	0	0	3	481	609	3	0	0	
1	0	0	0	0	0	505	616	3	0	0	
2	0	0	0	0	0	741	607	3	0	0	
3	0	0	0	0	0	1022	613	3	0	0	
4	0	0	0	0	3	935	603	3	0	0	
5	0	0	0	0	0	435	609	3	0	0	
6	0	0	0	0	0	252	599	3	0	0	
7	0	0	0	0	0	334	606	3	0	0	
8	0	0	0	0	3	413	596	2	0	0	
9	0	0	0	0	0	427	604	3	0	0	
10	0	0	0	0	0	447	594	3	0	0	
11	0	0	0	0	0	450	601	3	0	0	
12	0	0	0	0	1	468	593	2	0	0	
13	0	0	0	0	0	473	600	3	0	0	
14	0	0	0	0	0	493	591	3	0	0	
15	0	0	0	0	0	495	600	3	0	0	
0	0	0	0	0	3	510	591	2	0	0	
1	0	0	0	0	0	511	599	3	0	0	
2	0	0	0	0	0	529	591	3	0	0	
3	0	0	0	0	0	530	598	3	0	0	
4	0	0	0	0	3	547	590	3	0	0	
5	0	0	0	0	0	552	599	3	0	0	
6	0	0	0	0	0	570	591	3	0	0	
7	0	0	0	0	0	569	600	3	0	0	
8	0	0	0	0	3	582	593	3	0	0	
9	0	0	0	0	0	568	602	3	0	0	
10	0	0	0	0	0	572	595	3	0	0	
11	0	0	0	0	0	554	603	3	0	0	
12	0	0	0	0	3	545	594	2	0	0	
13	0	0	0	0	0	513	602	3	0	0	
14	0	0	0	0	0	487	594	3	0	0	
15	0	0	0	0	0	447	603	3	0	0	
0	0	0	0	0	3	433	595	3	0	0	
1	0	0	0	0	0	412	604	3	0	0	
2	0	0	0	0	0	416	596	3	0	0	
3	0	0	0	0	0	412	607	3	0	0	
4	0	0	0	0	3	427	599	3	0	0	
5	0	0	0	0	0	429	608	3	0	0	
6	0	0	0	0	0	447	600	3	0	0	
7	0	0	0	0	0	450	609	3	0	0	
8	0	0	0	0	3	470	601	3	0	0	
9	0	0	0	0	0	473	610	3	0	0	
10	0	0	0	0	0	487	602	3	0	0	
11	0	0	0	0	0	485	612	3	0	0	
12	0	0	0	0	3	496	605	3	0	0	
13	0	0	0	0	0	493	614	3	0	0	
14	0	0	0	0	0	502	604	3	0	0	
15	0	0	0	0	0	496	614	3	0	0	
0	0	0	0	0	3	504	606	3	0	0	
1	0	0	0	0	0	500	616	3	0	0	
2	0	0	0	0	0	506	607	3	0	0	
3	0	0	0	0	0	500	616	3	0	0	
4	0	0	0	0	3	511	608	2	0	0	
5	0	0	0	0	0	501	615	3	0	0	
6	0	0	0	0	0	514	605	3	0	0	
7	0	0	0	0	0	508	612	3	0	0	
8	0	0	0	0	1	519	601	3	0	0	
9	0	0	0	0	0	513	608	3	0	0	
10	0	0	0	0	0	524	597	3	0	0	
11	0	0	0	0	0	519	605	3	0	0	
12	0	0	0	0	3	525	594	2	0	0	
13	0	0	0	0	0	516	602	3	0	0	
14	0	0	0	0	0	524	591	3	0	0	
15	0	0	0	0	0	517	600	3	0	0	
0	0	0	0	0	3	525	590	2	0	0	
1	0	0	0	0	0	516	600	3	0	0	
2	0	0	0	0	0	524	590	3	0	0	
3	0	0	0	0	0	517	599	3	0	0	
4	0	0	0	0	3	525	589	2	0	0	
5	0	0	0	0	0	518	598	3	0	0	
6	0	0	0	0	0	523	588	3	0	0	
7	0	0	0	0	0	512	598	3	0	0	
8	0	0	0	0	3	520	588	2	0	0	
9	0	0	0	0	0	512	597	3	0	0	
10	0	0	0	0	0	521	588	3	0	0	
11	0	0	0	0	0	513	596	3	0	0	
12	0	0	0	0	3	519	586	2	0	0	
13	0	0	0	0	0	516	596	3	0	0	
14	0	0	0	0	0	522	586	3	0	0	
15	0	0	0	0	0	512	596	3	0	0	
0	0	0	0	0	3	518	586	3	0	0	
1	0	0	0	0	0	508	596	3	0	0	
2	0	0	0	0	0	530	586	3	0	0	
3	0	0	0	0	0	527	596	3	0	0	
4	0	0	0	0	3	531	586	2	0	0	
5	0	0	0	0	0	529	596	3	0	0	
6	0	0	0	0	0	533	586	3	0	0	
7	0	0	0	0	0	516	596	3	0	0	
8	0	0	0	0	3	517	585	2	0	0	
9	0	0	0	0	0	499	595	3	0	0	
10	0	0	0	0	0	499	585	3	0	0	
11	0	0	0	0	0	490	595	3	0	0	
12	0	0	0	0	3	502	585	2	0	0	
13	0	0	0	0	0	472	595	3	0	0	
14	0	0	0	0	0	494	585	3	0	0	
15	0	0	0	0	0	681	595	3	0	0	
0	0	0	0	0	3	1012	587	2	0	0	
1	0	0	0	0	0	967	599	3	0	0	
2	0	0	0	0	0	499	591	3	0	0	
3	0	0	0	0	0	236	603	3	0	0	
4	0	0	0	0	1	327	594	2	0	0	
5	0	0	0	0	0	390	607	3	0	0	
6	0	0	0	0	0	424	598	3	0	0	
7	0	0	0	0	0	427	610	3	0	0	
8	0	0	0	0	3	446	600	2	0	0	
9	0	0	0	0	0	447	611	3	0	0	
10	0	0	0	0	0	470	603	3	0	0	
11	0	0	0	0	0	470	614	3	0	0	
12	0	0	0	0	3	489	606	3	0	0	
13	0	0	0	0	0	487	617	3	0	0	
14	0	0	0	0	0	507	609	3	0	0	
15	0	0	0	0	0	505	621	3	0	0	
0	0	0	0	0	3	525	612	3	0	0	
1	0	0	0	0	0	531	624	3	0	0	
2	0	0	0	0	0	551	616	3	0	0	
3	0	0	0	0	0	553	626	3	0	0	
4	0	0	0	0	3	569	619	3	0	0	
5	0	0	0	0	0	568	630	3	0	0	
6	0	0	0	0	0	576	621	3	0	0	
7	0	0	0	0	0	562	632	3	0	0	
8	0	0	0	0	1	562	623	3	0	0	
9	0	0	0	0	0	543	633	3	0	0	
10	0	0	0	0	0	526	624	3	0	0	
11	0	0	0	0	0	486	636	3	0	0	
12	0	0	0	0	3	460	625	3	0	0	
13	0	0	0	0	0	425	635	3	0	0	
14	0	0	0	0	0	423	624	3	0	0	
15	0	0	0	0	0	410	632	3	0	0	
0	0	0	0	0	3	423	621	3	0	0	
1	0	0	0	0	0	422	629	3	0	0	
2	0	0	0	0	0	442	619	3	0	0	
3	0	0	0	0	0	445	627	3	0	0	
4	0	0	0	0	3	463	615	3	0	0	
5	0	0	0	0	0	466	623	3	0	0	
6	0	0	0	0	0	481	611	3	0	0	
7	0	0	0	0	0	484	621	3	0	0	
8	0	0	0	0	3	498	609	3	0	0	
9	0	0	0	0	0	497	618	3	0	0	
10	0	0	0	0	0	507	605	3	0	0	
11	0	0	0	0	0	503	614	3	0	0	
12	0	0	0	0	3	512	602	3	0	0	
13	0	0	0	0	0	506	609	3	0	0	
14	0	0	0	0	0	519	598	3	0	0	
15	0	0	0	0	0	513	607	3	0	0	
0	0	0	0	0	1	523	595	2	0	0	
1	0	0	0	0	0	515	604	3	0	0	
2	0	0	0	0	0	521	593	3	0	0	
3	0	0	0	0	0	516	601	3	0	0	
4	0	0	0	0	3	524	591	2	0	0	
5	0	0	0	0	0	514	600	3	0	0	
6	0	0	0	0	0	521	589	3	0	0	
7	0	0	0	0	0	515	599	3	0	0	
8	0	0	0	0	3	522	588	2	0	0	
9	0	0	0	0	0	514	598	3	0	0	
10	0	0	0	0	0	523	587	3	0	0	
11	0	0	0	0	0	516	598	3	0	0	
12	0	0	0	0	3	526	587	2	0	0	
13	0	0	0	0	0	518	596	3	0	0	
14	0	0	0	0	0	526	587	3	0	0	
15	0	0	0	0	0	519	596	3	0	0	
0	0	0	0	0	3	525	586	2	0	0	
1	0	0	0	0	0	515	596	3	0	0	
2	0	0	0	0	0	522	585	3	0	0	
3	0	0	0	0	0	511	596	3	0	0	
4	0	0	0	0	1	520	585	2	0	0	
5	0	0	0	0	0	515	596	3	0	0	
6	0	0	0	0	0	523	585	3	0	0	
7	0	0	0	0	0	514	595	3	0	0	
8	0	0	0	0	3	523	586	2	0	0	
9	0	0	0	0	0	515	596	3	0	0	
10	0	0	0	0	0	520	585	3	0	0	
11	0	0	0	0	0	512	598	3	0	0	
12	0	0	0	0	3	520	588	2	0	0	
13	0	0	0	0	0	513	600	3	0	0	
14	0	0	0	0	0	519	591	3	0	0	
15	0	0	0	0	0	513	601	3	0	0	
0	0	0	0	0	3	522	593	2	0	0	
1	0	0	0	0	0	512	608	3	0	0	
2	0	0	0	0	0	526	601	3	0	0	
3	0	0	0	0	0	523	615	3	0	0	
4	0	0	0	0	3	527	609	3	0	0	
5	0	0	0	0	0	521	622	3	0	0	
6	0	0	0	0	0	522	615	3	0	0	
7	0	0	0	0	0	506	629	3	0	0	
8	0	0	0	0	3	502	621	3	0	0	
9	0	0	0	0	0	485	634	3	0	0	
10	0	0	0	0	0	487	625	3	0	0	
11	0	0	0	0	0	476	639	3	0	0	
12	0	0	0	0	3	486	630	3	0	0	
13	0	0	0	0	0	454	642	3	0	0	
14	0	0	0	0	0	501	634	3	0	0	
15	0	0	0	0	0	729	646	3	0	0	
0	0	0	0	0	3	1022	639	3	0	0	
1	0	0	0	0	0	910	648	3	0	0	
2	0	0	0	0	0	419	640	3	0	0	
3	0	0	0	0	0	213	651	3	0	0	
4	0	0	0	0	3	316	642	3	0	0	
5	0	0	0	0	0	384	652	3	0	0	
6	0	0	0	0	0	418	643	3	0	0	
7	0	0	0	0	0	426	653	3	0	0	
8	0	0	0	0	3	448	643	3	0	0	
9	0	0	0	0	0	453	652	3	0	0	
10	0	0	0	0	0	471	642	3	0	0	
11	0	0	0	0	0	475	651	3	0	0	
12	0	0	0	0	3	491	641	3	0	0	
13	0	0	0	0	0	487	651	3	0	0	
14	0	0	0	0	0	503	639	3	0	0	
15	0	0	0	0	0	499	649	3	0	0	
0	0	0	0	0	1	518	639	3	0	0	
1	0	0	0	0	0	524	649	3	0	0	
2	0	0	0	0	0	551	640	3	0	0	
3	0	0	0	0	0	564	651	3	0	0	
4	0	0	0	0	3	591	641	3	0	0	
5	0	0	0	0	0	595	652	3	0	0	
6	0	0	0	0	0	601	642	3	0	0	
7	0	0	0	0	0	585	652	3	0	0	
8	0	0	0	0	3	581	642	3	0	0	
9	0	0	0	0	0	556	651	3	0	0	
10	0	0	0	0	0	536	642	3	0	0	
11	0	0	0	0	0	491	652	3	0	0	
12	0	0	0	0	3	460	642	3	0	0	
13	0	0	0	0	0	420	652	3	0	0	
14	0	0	0	0	0	410	642	3	0	0	
15	0	0	0	0	0	397	654	3	0	0	
0	0	0	0	0	3	406	643	3	0	0	
1	0	0	0	0	0	409	653	3	0	0	
2	0	0	0	0	0	425	643	3	0	0	
3	0	0	0	0	0	428	653	3	0	0	
4	0	0	0	0	3	447	642	3	0	0	
5	0	0	0	0	0	454	652	3	0	0	
6	0	0	0	0	0	473	642	3	0	0	
7	0	0	0	0	0	474	652	3	0	0	
8	0	0	0	0	3	492	642	3	0	0	
9	0	0	0	0	0	493	651	3	0	0	
10	0	0	0	0	0	505	641	3	0	0	
11	0	0	0	0	0	501	652	3	0	0	
12	0	0	0	0	3	510	641	3	0	0	
13	0	0	0	0	0	507	651	3	0	0	
14	0	0	0	0	0	517	641	3	0	0	
15	0	0	0	0	0	512	651	3	0	0	
0	0	0	0	0	3	519	641	3	0	0	
1	0	0	0	0	0	511	652	3	0	0	
2	0	0	0	0	0	518	641	3	0	0	
3	0	0	0	0	0	507	650	3	0	0	
4	0	0	0	0	3	515	641	3	0	0	
5	0	0	0	0	0	508	650	3	0	0	
6	0	0	0	0	0	517	639	3	0	0	
7	0	0	0	0	0	508	651	3	0	0	
8	0	0	0	0	3	514	641	3	0	0	
9	0	0	0	0	1	506	650	3	0	0	
10	0	0	0	0	0	513	640	3	0	0	
11	0	0	0	0	0	508	650	3	0	0	
12	0	0	0	0	1	517	640	3	0	0	
13	0	0	0	0	0	509	650	3	0	0	
14	0	0	0	0	0	521	640	3	0	0	
15	0	0	0	0	0	513	649	3	0	0	
0	0	0	0	0	3	520	640	3	0	0	
1	0	0	0	0	0	513	650	3	0	0	
2	0	0	0	0	0	521	639	3	0	0	
3	0	0	0	0	0	514	650	3	0	0	
4	0	0	0	0	3	524	639	3	0	0	
5	0	0	0	0	0	516	649	3	0	0	
6	0	0	0	0	0	524	638	3	0	0	
7	0	0	0	0	0	516	649	3	0	0	
8	0	0	0	0	3	522	638	3	0	0	
9	0	0	0	0	0	513	649	3	0	0	
10	0	0	0	0	0	518	639	3	0	0	
11	0	0	0	0	0	511	649	3	0	0	
12	0	0	0	0	3	519	639	3	0	0	
13	0	0	0	0	0	509	649	3	0	0	
14	0	0	0	0	0	519	640	3	0	0	
15	0	0	0	0	0	512	649	3	0	0	
0	0	0	0	0	3	520	639	3	0	0	
1	0	0	0	0	0	517	649	3	0	0	
2	0	0	0	0	0	537	639	3	0	0	
3	0	0	0	0	0	525	649	3	0	0	
4	0	0	0	0	3	536	638	3	0	0	
5	0	0	0	0	0	525	648	3	0	0	
6	0	0	0	0	0	528	638	3	0	0	
7	0	0	0	0	0	513	649	3	0	0	
8	0	0	0	0	3	512	637	3	0	0	
9	0	0	0	0	0	497	648	3	0	0	
10	0	0	0	0	0	502	638	3	0	0	
11	0	0	0	0	0	497	649	3	0	0	
12	0	0	0	0	3	478	638	3	0	0	
13	0	0	0	0	0	529	649	3	0	0	
14	0	0	0	0	0	791	639	3	0	0	
15	0	0	0	0	0	1022	649	3	0	0	
0	0	0	0	0	3	888	639	3	0	0	
1	0	0	0	0	0	373	649	3	0	0	
2	0	0	0	0	0	246	639	3	0	0	
3	0	0	0	0	0	336	649	3	0	0	
4	0	0	0	0	3	411	638	3	0	0	
5	0	0	0	0	0	420	649	3	0	0	
6	0	0	0	0	0	438	638	3	0	0	
7	0	0	0	0	0	438	647	3	0	0	
8	0	0	0	0	1	458	639	3	0	0	
9	0	0	0	0	1	465	648	3	0	0	
10	0	0	0	0	0	484	638	3	0	0	
11	0	0	0	0	0	490	648	3	0	0	
12	0	0	0	0	3	505	638	3	0	0	
13	0	0	0	0	0	505	648	3	0	0	
14	0	0	0	0	0	519	638	3	0	0	
15	0	0	0	0	0	524	648	3	0	0	
0	0	0	0	0	3	546	637	3	0	0	
1	0	0	0	0	0	555	648	3	0	0	
2	0	0	0	0	0	577	638	3	0	0	
3	0	0	0	0	0	582	647	3	0	0	
4	0	0	0	0	3	595	637	3	0	0	
5	0	0	0	0	0	587	648	3	0	0	
6	0	0	0	0	0	588	637	3	0	0	
7	0	0	0	0	0	571	648	3	0	0	
8	0	0	0	0	3	560	638	3	0	0	
9	0	0	0	0	0	519	649	3	0	0	
10	0	0	0	0	0	486	637	3	0	0	
11	0	0	0	0	0	441	648	3	0	0	
12	0	0	0	0	3	420	637	3	0	0	
13	0	0	0	0	0	398	648	3	0	0	
14	0	0	0	0	0	401	637	3	0	0	
15	0	0	0	0	0	398	647	3	0	0	
0	0	0	0	0	3	414	636	3	0	0	
1	0	0	0	0	0	415	647	3	0	0	
2	0	0	0	0	0	433	636	3	0	0	
3	0	0	0	0	0	439	647	3	0	0	
4	0	0	0	0	3	460	636	3	0	0	
5	0	0	0	0	0	461	648	3	0	0	
6	0	0	0	0	0	478	636	3	0	0	
7	0	0	0	0	0	480	647	3	0	0	
8	0	0	0	0	3	493	636	3	0	0	
9	0	0	0	0	0	493	647	3	0	0	
10	0	0	0	0	0	505	636	3	0	0	
11	0	0	0	0	0	500	647	3	0	0	
12	0	0	0	0	3	509	636	3	0	0	
13	0	0	0	0	0	505	647	3	0	0	
14	0	0	0	0	0	514	636	3	0	0	
15	0	0	0	0	0	507	647	3	0	0	
0	0	0	0	0	3	512	636	3	0	0	
1	0	0	0	0	0	504	646	3	0	0	
2	0	0	0	0	0	512	636	3	0	0	
3	0	0	0	0	1	507	646	3	0	0	
4	0	0	0	0	1	516	636	3	0	0	
5	0	0	0	0	0	509	646	3	0	0	
6	0	0	0	0	0	518	636	3	0	0	
7	0	0	0	0	0	511	647	3	0	0	
8	0	0	0	0	3	521	636	3	0	0	
9	0	0	0	0	0	516	646	3	0	0	
10	0	0	0	0	0	523	637	3	0	0	
11	0	0	0	0	0	515	646	3	0	0	
12	0	0	0	0	3	521	636	3	0	0	
13	0	0	0	0	0	516	646	3	0	0	
14	0	0	0	0	0	525	636	3	0	0	
15	0	0	0	0	0	519	646	3	0	0	
0	0	0	0	0	3	524	636	3	0	0	
1	0	0	0	0	0	518	647	3	0	0	
2	0	0	0	0	0	524	636	3	0	0	
3	0	0	0	0	0	518	646	3	0	0	
4	0	0	0	0	3	525	635	3	0	0	
5	0	0	0	0	0	517	646	3	0	0	
6	0	0	0	0	0	523	635	3	0	0	
7	0	0	0	0	0	518	645	3	0	0	
8	0	0	0	0	3	526	635	3	0	0	
9	0	0	0	0	0	519	646	3	0	0	
10	0	0	0	0	0	525	635	3	0	0	
11	0	0	0	0	0	518	646	3	0	0	
12	0	0	0	0	3	525	635	3	0	0	
13	0	0	0	0	0	516	645	3	0	0	
14	0	0	0	0	0	523	635	3	0	0	
15	0	0	0	0	0	528	645	3	0	0	
0	0	0	0	0	3	541	635	3	0	0	
1	0	0	0	0	0	531	645	3	0	0	
2	0	0	0	0	0	538	634	3	0	0	
3	0	0	0	0	0	529	646	3	0	0	
4	0	0	0	0	3	529	635	3	0	0	
5	0	0	0	0	0	514	644	3	0	0	
6	0	0	0	0	0	513	634	3	0	0	
7	0	0	0	0	0	497	644	3	0	0	
8	0	0	0	0	3	506	635	3	0	0	
9	0	0	0	0	0	492	644	3	0	0	
10	0	0	0	0	0	484	634	3	0	0	
11	0	0	0	0	0	604	644	3	0	0	
12	0	0	0	0	3	902	634	3	0	0	
13	0	0	0	0	0	1022	644	3	0	0	
14	0	0	0	0	0	701	634	3	0	0	
15	0	0	0	0	0	266	644	3	0	0	
0	0	0	0	0	1	295	633	3	0	0	
1	0	0	0	0	0	381	644	3	0	0	
2	0	0	0	0	0	429	635	3	0	0	
3	0	0	0	0	0	431	644	3	0	0	
4	0	0	0	0	3	447	634	3	0	0	
5	0	0	0	0	0	453	644	3	0	0	
6	0	0	0	0	0	471	634	3	0	0	
7	0	0	0	0	0	476	645	3	0	0	
8	0	0	0	0	3	494	633	3	0	0	
9	0	0	0	0	0	496	643	3	0	0	
10	0	0	0	0	0	509	633	3	0	0	
11	0	0	0	0	0	508	643	3	0	0	
12	0	0	0	0	3	525	633	3	0	0	
13	0	0	0	0	0	531	643	3	0	0	
14	0	0	0	0	0	551	633	3	0	0	
15	0	0	0	0	0	560	644	3	0	0	
0	0	0	0	0	3	577	633	3	0	0	
1	0	0	0	0	0	583	644	3	0	0	
2	0	0	0	0	0	593	632	3	0	0	
3	0	0	0	0	0	587	643	3	0	0	
4	0	0	0	0	1	587	632	3	0	0	
5	0	0	0	0	0	568	643	3	0	0	
6	0	0	0	0	0	551	633	3	0	0	
7	0	0	0	0	0	509	642	3	0	0	
8	0	0	0	0	3	475	632	3	0	0	
9	0	0	0	0	0	431	643	3	0	0	
10	0	0	0	0	0	414	633	3	0	0	
11	0	0	0	0	0	396	643	3	0	0	
12	0	0	0	0	3	403	633	3	0	0	
13	0	0	0	0	0	404	643	3	0	0	
14	0	0	0	0	0	420	632	3	0	0	
15	0	0	0	0	0	425	644	3	0	0	
0	0	0	0	0	3	442	633	3	0	0	
1	0	0	0	0	0	449	642	3	0	0	
2	0	0	0	0	0	467	632	3	0	0	
3	0	0	0	0	0	470	641	3	0	0	
4	0	0	0	0	3	485	632	3	0	0	
5	0	0	0	0	0	484	641	3	0	0	
6	0	0	0	0	0	495	631	3	0	0	
7	0	0	0	0	0	494	642	3	0	0	
8	0	0	0	0	3	503	632	3	0	0	
9	0	0	0	0	0	501	641	3	0	0	
10	0	0	0	0	0	511	632	3	0	0	
11	0	0	0	0	0	507	642	3	0	0	
12	0	0	0	0	1	512	632	3	0	0	
13	0	0	0	0	0	504	643	3	0	0	
14	0	0	0	0	0	509	632	3	0	0	
15	0	0	0	0	0	503	642	3	0	0	
0	0	0	0	0	3	510	631	3	0	0	
1	0	0	0	0	0	508	641	3	0	0	
2	0	0	0	0	0	514	631	3	0	0	
3	0	0	0	0	0	510	640	3	0	0	
4	0	0	0	0	3	519	630	3	0	0	
5	0	0	0	0	0	513	640	3	0	0	
6	0	0	0	0	0	521	631	3	0	0	
7	0	0	0	0	0	515	641	3	0	0	
8	0	0	0	0	3	521	631	3	0	0	
9	0	0	0	0	0	516	641	3	0	0	
10	0	0	0	0	0	523	630	3	0	0	
11	0	0	0	0	0	519	640	3	0	0	
12	0	0	0	0	3	525	630	3	0	0	
13	0	0	0	0	0	520	641	3	0	0	
14	0	0	0	0	0	526	631	3	0	0	
15	0	0	0	0	0	519	640	3	0	0	
0	0	0	0	0	1	526	630	3	0	0	
1	0	0	0	0	0	520	641	3	0	0	
2	0	0	0	0	0	525	630	3	0	0	
3	0	0	0	0	0	518	640	3	0	0	
4	0	0	0	0	3	524	630	3	0	0	
5	0	0	0	0	0	518	640	3	0	0	
6	0	0	0	0	0	525	631	3	0	0	
7	0	0	0	0	0	519	640	3	0	0	
8	0	0	0	0	3	525	631	3	0	0	
9	0	0	0	0	0	518	640	3	0	0	
10	0	0	0	0	0	523	632	3	0	0	
11	0	0	0	0	0	519	640	3	0	0	
12	0	0	0	0	3	536	630	3	0	0	
13	0	0	0	0	0	538	639	3	0	0	
14	0	0	0	0	0	539	630	3	0	0	
15	0	0	0	0	0	535	640	3	0	0	
0	0	0	0	0	3	538	630	3	0	0	
1	0	0	0	0	0	525	639	3	0	0	
2	0	0	0	0	0	521	629	3	0	0	
3	0	0	0	0	0	505	640	3	0	0	
4	0	0	0	0	3	504	629	3	0	0	
5	0	0	0	0	0	499	639	3	0	0	
6	0	0	0	0	0	497	629	3	0	0	
7	0	0	0	0	0	478	639	3	0	0	
8	0	0	0	0	3	618	630	3	0	0	
9	0	0	0	0	0	912	640	3	0	0	
10	0	0	0	0	0	1022	631	3	0	0	
11	0	0	0	0	0	665	639	3	0	0	
12	0	0	0	0	3	260	629	3	0	0	
13	0	0	0	0	0	291	639	3	0	0	
14	0	0	0	0	0	387	630	3	0	0	
15	0	0	0	0	0	420	639	3	0	0	
0	0	0	0	0	3	436	629	3	0	0	
1	0	0	0	0	0	440	639	3	0	0	
2	0	0	0	0	0	459	630	3	0	0	
3	0	0	0	0	0	466	639	3	0	0	
4	0	0	0	0	3	480	630	3	0	0	
5	0	0	0	0	0	487	639	3	0	0	
6	0	0	0	0	0	501	630	3	0	0	
7	0	0	0	0	0	503	639	3	0	0	
8	0	0	0	0	3	515	630	3	0	0	
9	0	0	0	0	0	519	639	3	0	0	
10	0	0	0	0	0	536	632	3	0	0	
11	0	0	0	0	0	543	640	3	0	0	
12	0	0	0	0	1	561	630	3	0	0	
13	0	0	0	0	0	569	639	3	0	0	
14	0	0	0	0	0	587	630	3	0	0	
15	0	0	0	0	0	586	640	3	0	0	
0	0	0	0	0	3	590	630	3	0	0	
1	0	0	0	0	0	579	640	3	0	0	
2	0	0	0	0	0	571	630	3	0	0	
3	0	0	0	0	0	544	640	3	0	0	
4	0	0	0	0	3	510	631	3	0	0	
5	0	0	0	0	0	464	640	3	0	0	
6	0	0	0	0	0	434	631	3	0	0	
7	0	0	0	0	0	406	641	3	0	0	
8	0	0	0	0	3	404	631	3	0	0	
9	0	0	0	0	0	398	640	3	0	0	
10	0	0	0	0	0	410	630	3	0	0	
11	0	0	0	0	0	416	640	3	0	0	
12	0	0	0	0	3	434	631	3	0	0	
13	0	0	0	0	0	440	641	3	0	0	
14	0	0	0	0	0	455	631	3	0	0	
15	0	0	0	0	0	459	640	3	0	0	
0	0	0	0	0	3	475	631	3	0	0	
1	0	0	0	0	0	476	640	3	0	0	
2	0	0	0	0	0	488	631	3	0	0	
3	0	0	0	0	0	488	640	3	0	0	
4	0	0	0	0	3	498	630	3	0	0	
5	0	0	0	0	0	496	641	3	0	0	
6	0	0	0	0	0	504	631	3	0	0	
7	0	0	0	0	0	502	639	3	0	0	
8	0	0	0	0	3	510	630	3	0	0	
9	0	0	0	0	0	506	640	3	0	0	
10	0	0	0	0	0	511	631	3	0	0	
11	0	0	0	0	0	504	640	3	0	0	
12	0	0	0	0	3	510	631	3	0	0	
13	0	0	0	0	0	508	640	3	0	0	
14	0	0	0	0	0	512	632	3	0	0	
15	0	0	0	0	0	509	640	3	0	0	
0	0	0	0	0	3	512	631	3	0	0	
1	0	0	0	0	0	510	640	3	0	0	
2	0	0	0	0	0	515	631	3	0	0	
3	0	0	0	0	0	511	640	3	0	0	
4	0	0	0	0	3	516	631	3	0	0	
5	0	0	0	0	0	514	641	3	0	0	
6	0	0	0	0	0	520	631	3	0	0	
7	0	0	0	0	0	515	641	3	0	0	
8	0	0	0	0	1	520	631	3	0	0	
9	0	0	0	0	0	513	641	3	0	0	
10	0	0	0	0	0	518	631	3	0	0	
11	0	0	0	0	0	514	641	3	0	0	
12	0	0	0	0	3	519	631	3	0	0	
13	0	0	0	0	0	512	640	3	0	0	
14	0	0	0	0	0	514	632	3	0	0	
15	0	0	0	0	0	508	640	3	0	0	
0	0	0	0	0	3	515	631	3	0	0	
1	0	0	0	0	0	511	640	3	0	0	
2	0	0	0	0	0	520	630	3	0	0	
3	0	0	0	0	0	516	640	3	0	0	
4	0	0	0	0	3	524	631	3	0	0	
5	0	0	0	0	0	521	639	3	0	0	
6	0	0	0	0	0	535	631	3	0	0	
7	0	0	0	0	0	538	641	3	0	0	
8	0	0	0	0	3	538	632	3	0	0	
9	0	0	0	0	0	533	640	3	0	0	
10	0	0	0	0	0	535	632	3	0	0	
11	0	0	0	0	0	520	640	3	0	0	
12	0	0	0	0	3	517	632	3	0	0	
13	0	0	0	0	0	505	640	3	0	0	
14	0	0	0	0	0	505	631	3	0	0	
15	0	0	0	0	0	501	640	3	0	0	
0	0	0	0	0	3	498	632	3	0	0	
1	0	0	0	0	0	481	640	3	0	0	
2	0	0	0	0	0	624	631	3	0	0	
3	0	0	0	0	0	929	640	3	0	0	
4	0	0	0	0	3	1022	632	3	0	0	
5	0	0	0	0	0	675	639	3	0	0	
6	0	0	0	0	0	267	631	3	0	0	
7	0	0	0	0	0	287	640	3	0	0	
8	0	0	0	0	3	371	632	3	0	0	
9	0	0	0	0	0	416	640	3	0	0	
10	0	0	0	0	0	436	631	3	0	0	
11	0	0	0	0	0	444	641	3	0	0	
12	0	0	0	0	3	455	632	3	0	0	
13	0	0	0	0	0	463	639	3	0	0	
14	0	0	0	0	0	480	631	3	0	0	
15	0	0	0	0	0	489	640	3	0	0	
0	0	0	0	0	3	503	631	3	0	0	
1	0	0	0	0	0	505	640	3	0	0	
2	0	0	0	0	0	518	631	3	0	0	
3	0	0	0	0	0	522	640	3	0	0	
4	0	0	0	0	1	537	631	3	0	0	
5	0	0	0	0	1	544	640	3	0	0	
6	0	0	0	0	0	563	632	3	0	0	
7	0	0	0	0	0	571	640	3	0	0	
8	0	0	0	0	3	588	632	3	0	0	
9	0	0	0	0	0	588	640	3	0	0	
10	0	0	0	0	0	590	632	3	0	0	
11	0	0	0	0	0	578	640	3	0	0	
12	0	0	0	0	3	569	632	3	0	0	
13	0	0	0	0	0	545	639	3	0	0	
14	0	0	0	0	0	514	632	3	0	0	
15	0	0	0	0	0	467	639	3	0	0	
0	0	0	0	0	3	438	631	3	0	0	
1	0	0	0	0	0	411	639	3	0	0	
2	0	0	0	0	0	404	631	3	0	0	
3	0	0	0	0	0	399	639	3	0	0	
4	0	0	0	0	3	410	632	3	0	0	
5	0	0	0	0	0	417	640	3	0	0	
6	0	0	0	0	0	433	632	3	0	0	
7	0	0	0	0	0	442	641	3	0	0	
8	0	0	0	0	3	455	632	3	0	0	
9	0	0	0	0	0	463	640	3	0	0	
10	0	0	0	0	0	478	632	3	0	0	
11	0	0	0	0	0	479	639	3	0	0	
12	0	0	0	0	3	488	632	3	0	0	
13	0	0	0	0	0	490	639	3	0	0	
14	0	0	0	0	0	496	632	3	0	0	
15	0	0	0	0	0	495	639	3	0	0	
0	0	0	0	0	3	501	630	3	0	0	
1	0	0	0	0	0	499	639	3	0	0	
2	0	0	0	0	0	505	630	3	0	0	
3	0	0	0	0	0	502	639	3	0	0	
4	0	0	0	0	3	506	631	3	0	0	
5	0	0	0	0	0	503	639	3	0	0	
6	0	0	0	0	0	507	632	3	0	0	
7	0	0	0	0	0	504	639	3	0	0	
8	0	0	0	0	3	510	631	3	0	0	
9	0	0	0	0	0	508	639	3	0	0	
10	0	0	0	0	0	512	631	3	0	0	
11	0	0	0	0	0	510	639	3	0	0	
12	0	0	0	0	3	514	631	3	0	0	
13	0	0	0	0	1	512	639	3	0	0	
14	0	0	0	0	0	516	631	3	0	0	
15	0	0	0	0	0	512	638	3	0	0	
0	0	0	0	0	1	517	630	3	0	0	
1	0	0	0	0	1	514	638	3	0	0	
2	0	0	0	0	0	519	630	3	0	0	
3	0	0	0	0	0	515	638	3	0	0	
4	0	0	0	0	3	518	630	3	0	0	
5	0	0	0	0	0	515	639	3	0	0	
6	0	0	0	0	0	519	631	3	0	0	
7	0	0	0	0	0	516	639	3	0	0	
8	0	0	0	0	3	516	630	3	0	0	
9	0	0	0	0	0	513	639	3	0	0	
10	0	0	0	0	0	516	631	3	0	0	
11	0	0	0	0	0	513	638	3	0	0	
12	0	0	0	0	3	516	630	3	0	0	
13	0	0	0	0	0	515	638	3	0	0	
14	0	0	0	0	0	516	630	3	0	0	
15	0	0	0	0	0	517	638	3	0	0	
0	0	0	0	0	3	536	630	3	0	0	
1	0	0	0	0	0	534	638	3	0	0	
2	0	0	0	0	0	537	630	3	0	0	
3	0	0	0	0	0	530	638	3	0	0	
4	0	0	0	0	3	531	630	3	0	0	
5	0	0	0	0	0	518	637	3	0	0	
6	0	0	0	0	0	512	631	3	0	0	
7	0	0	0	0	0	502	638	3	0	0	
8	0	0	0	0	3	502	631	3	0	0	
9	0	0	0	0	0	499	638	3	0	0	
10	0	0	0	0	0	485	629	3	0	0	
11	0	0	0	0	0	501	638	3	0	0	
12	0	0	0	0	3	718	630	3	0	0	
13	0	0	0	0	0	1021	638	3	0	0	
14	0	0	0	0	0	979	631	3	0	0	
15	0	0	0	0	0	472	638	3	0	0	
0	0	0	0	0	3	231	630	3	0	0	
1	0	0	0	0	0	329	637	3	0	0	
2	0	0	0	0	0	406	630	3	0	0	
3	0	0	0	0	0	423	638	3	0	0	
4	0	0	0	0	3	435	631	3	0	0	
5	0	0	0	0	0	443	638	3	0	0	
6	0	0	0	0	0	460	631	3	0	0	
7	0	0	0	0	0	469	638	3	0	0	
8	0	0	0	0	3	483	630	3	0	0	
9	0	0	0	0	0	492	637	3	0	0	
10	0	0	0	0	0	503	629	3	0	0	
11	0	0	0	0	1	506	637	3	0	0	
12	0	0	0	0	1	513	629	3	0	0	
13	0	0	0	0	0	521	636	3	0	0	
14	0	0	0	0	0	538	630	3	0	0	
15	0	0	0	0	0	547	636	3	0	0	
0	0	0	0	0	3	563	630	3	0	0	
1	0	0	0	0	0	572	637	3	0	0	
2	0	0	0	0	0	586	630	3	0	0	
3	0	0	0	0	0	588	636	3	0	0	
4	0	0	0	0	3	587	630	3	0	0	
5	0	0	0	0	0	577	638	3	0	0	
6	0	0	0	0	0	566	629	3	0	0	
7	0	0	0	0	0	533	636	3	0	0	
8	0	0	0	0	3	498	630	3	0	0	
9	0	0	0	0	0	453	636	3	0	0	
10	0	0	0	0	0	423	629	3	0	0	
11	0	0	0	0	0	403	636	3	0	0	
12	0	0	0	0	3	399	630	3	0	0	
13	0	0	0	0	0	401	636	3	0	0	
14	0	0	0	0	0	412	629	3	0	0	
15	0	0	0	0	0	420	637	3	0	0	
0	0	0	0	0	0	435	629	3	0	0	
1	0	0	0	0	0	446	636	3	0	0	
2	0	0	0	0	0	459	629	3	0	0	
3	0	0	0	0	0	467	637	3	0	0	
4	0	0	0	0	3	478	630	3	0	0	
5	0	0	0	0	0	481	636	3	0	0	
6	0	0	0	0	0	489	629	3	0	0	
7	0	0	0	0	0	492	636	3	0	0	
8	0	0	0	0	3	500	629	3	0	0	
9	0	0	0	0	0	501	637	3	0	0	
10	0	0	0	0	0	506	630	3	0	0	
11	0	0	0	0	0	505	636	3	0	0	
12	0	0	0	0	3	510	630	3	0	0	
13	0	0	0	0	0	507	637	3	0	0	
14	0	0	0	0	0	507	629	3	0	0	
15	0	0	0	0	0	506	636	3	0	0	
0	0	0	0	0	3	506	629	3	0	0	
1	0	0	0	0	0	507	635	3	0	0	
2	0	0	0	0	0	512	630	3	0	0	
3	0	0	0	0	0	512	635	3	0	0	
4	0	0	0	0	3	515	629	3	0	0	
5	0	0	0	0	0	515	636	3	0	0	
6	0	0	0	0	0	517	628	3	0	0	
7	0	0	0	0	0	516	635	3	0	0	
8	0	0	0	0	1	517	629	3	0	0	
9	0	0	0	0	1	513	635	3	0	0	
10	0	0	0	0	0	515	629	3	0	0	
11	0	0	0	0	0	514	636	3	0	0	
12	0	0	0	0	3	518	630	3	0	0	
13	0	0	0	0	0	519	636	3	0	0	
14	0	0	0	0	0	521	629	3	0	0	
15	0	0	0	0	0	519	636	3	0	0	
0	0	0	0	0	3	519	629	3	0	0	
1	0	0	0	0	0	518	636	3	0	0	
2	0	0	0	0	0	520	630	3	0	0	
3	0	0	0	0	0	518	635	3	0	0	
4	0	0	0	0	3	519	629	3	0	0	
5	0	0	0	0	0	515	636	3	0	0	
6	0	0	0	0	0	515	630	3	0	0	
7	0	0	0	0	0	513	636	3	0	0	
8	0	0	0	0	3	518	629	3	0	0	
9	0	0	0	0	0	520	636	3	0	0	
10	0	0	0	0	0	521	629	3	0	0	
11	0	0	0	0	0	517	635	3	0	0	
12	0	0	0	0	1	518	629	3	0	0	
13	0	0	0	0	0	529	634	3	0	0	
14	0	0	0	0	0	536	629	3	0	0	
15	0	0	0	0	0	530	635	3	0	0	
0	0	0	0	0	3	533	629	3	0	0	
1	0	0	0	0	0	530	635	3	0	0	
2	0	0	0	0	0	524	629	3	0	0	
3	0	0	0	0	0	514	635	3	0	0	
4	0	0	0	0	3	505	629	3	0	0	
5	0	0	0	0	0	496	635	3	0	0	
6	0	0	0	0	0	499	630	3	0	0	
7	0	0	0	0	0	489	636	3	0	0	
8	0	0	0	0	3	480	629	3	0	0	
9	0	0	0	0	0	619	635	3	0	0	
10	0	0	0	0	0	923	629	3	0	0	
11	0	0	0	0	0	1022	635	3	0	0	
12	0	0	0	0	3	644	629	3	0	0	
13	0	0	0	0	0	248	634	3	0	0	
14	0	0	0	0	0	299	629	3	0	0	
15	0	0	0	0	0	386	635	3	0	0	
0	0	0	0	0	3	423	629	3	0	0	
1	0	0	0	0	0	434	634	3	0	0	
2	0	0	0	0	0	443	629	3	0	0	
3	0	0	0	0	0	451	634	3	0	0	
4	0	0	0	0	3	463	629	3	0	0	
5	0	0	0	0	0	476	634	3	0	0	
6	0	0	0	0	0	489	629	3	0	0	
7	0	0	0	0	0	500	635	3	0	0	
8	0	0	0	0	3	506	630	3	0	0	
9	0	0	0	0	0	511	635	3	0	0	
10	0	0	0	0	0	517	629	3	0	0	
11	0	0	0	0	0	526	634	3	0	0	
12	0	0	0	0	3	544	628	3	0	0	
13	0	0	0	0	0	559	634	3	0	0	
14	0	0	0	0	0	575	628	3	0	0	
15	0	0	0	0	0	585	634	3	0	0	
0	0	0	0	0	3	589	629	3	0	0	
1	0	0	0	0	0	586	634	3	0	0	
2	0	0	0	0	0	578	629	3	0	0	
3	0	0	0	0	0	567	635	3	0	0	
4	0	0	0	0	3	547	629	3	0	0	
5	0	0	0	0	0	512	635	3	0	0	
6	0	0	0	0	0	470	629	3	0	0	
7	0	0	0	0	1	434	633	3	0	0	
8	0	0	0	0	1	411	630	3	0	0	
9	0	0	0	0	0	399	634	3	0	0	
10	0	0	0	0	0	399	628	3	0	0	
11	0	0	0	0	0	409	634	3	0	0	
12	0	0	0	0	3	420	628	3	0	0	
13	0	0	0	0	0	432	634	3	0	0	
14	0	0	0	0	0	441	629	3	0	0	
15	0	0	0	0	0	453	634	3	0	0	
0	0	0	0	0	3	463	628	3	0	0	
1	0	0	0	0	0	473	634	3	0	0	
2	0	0	0	0	0	481	629	3	0	0	
3	0	0	0	0	0	488	633	3	0	0	
4	0	0	0	0	3	491	629	3	0	0	
5	0	0	0	0	0	491	633	3	0	0	
6	0	0	0	0	0	491	629	3	0	0	
7	0	0	0	0	0	494	633	3	0	0	
8	0	0	0	0	3	497	628	3	0	0	
9	0	0	0	0	0	503	633	3	0	0	
10	0	0	0	0	0	508	628	3	0	0	
11	0	0	0	0	0	508	633	3	0	0	
12	0	0	0	0	3	508	628	3	0	0	
13	0	0	0	0	0	510	633	3	0	0	
14	0	0	0	0	0	511	628	3	0	0	
15	0	0	0	0	0	513	633	3	0	0	
0	0	0	0	0	3	515	629	3	0	0	
1	0	0	0	0	1	515	633	3	0	0	
2	0	0	0	0	0	518	629	3	0	0	
3	0	0	0	0	0	517	633	3	0	0	
4	0	0	0	0	3	522	629	3	0	0	
5	0	0	0	0	0	521	633	3	0	0	
6	0	0	0	0	0	519	628	3	0	0	
7	0	0	0	0	0	524	632	3	0	0	
8	0	0	0	0	3	523	628	3	0	0	
9	0	0	0	0	0	523	632	3	0	0	
10	0	0	0	0	0	523	628	3	0	0	
11	0	0	0	0	0	521	633	3	0	0	
12	0	0	0	0	3	520	630	3	0	0	
13	0	0	0	0	1	519	633	3	0	0	
14	0	0	0	0	0	518	629	3	0	0	
15	0	0	0	0	0	518	633	3	0	0	
0	0	0	0	0	3	519	630	3	0	0	
1	0	0	0	0	0	520	633	3	0	0	
2	0	0	0	0	0	519	629	3	0	0	
3	0	0	0	0	0	522	633	3	0	0	
4	0	0	0	0	1	519	630	3	0	0	
5	0	0	0	0	0	522	633	3	0	0	
6	0	0	0	0	0	519	629	3	0	0	
7	0	0	0	0	0	519	633	3	0	0	
8	0	0	0	0	3	521	629	3	0	0	
9	0	0	0	0	0	519	632	3	0	0	
10	0	0	0	0	0	523	629	3	0	0	
11	0	0	0	0	0	536	633	3	0	0	
12	0	0	0	0	3	533	628	3	0	0	
13	0	0	0	0	0	540	633	3	0	0	
14	0	0	0	0	0	542	629	3	0	0	
15	0	0	0	0	0	536	632	3	0	0	
0	0	0	0	0	3	527	628	3	0	0	
1	0	0	0	0	0	521	632	3	0	0	
2	0	0	0	0	0	511	629	3	0	0	
3	0	0	0	0	0	505	632	3	0	0	
4	0	0	0	0	3	503	629	3	0	0	
5	0	0	0	0	0	475	633	3	0	0	
6	0	0	0	0	0	546	629	3	0	0	
7	0	0	0	0	0	822	632	3	0	0	
8	0	0	0	0	3	1022	629	3	0	0	
9	0	0	0	0	0	839	632	3	0	0	
10	0	0	0	0	0	363	628	3	0	0	
11	0	0	0	0	0	250	632	3	0	0	
12	0	0	0	0	3	336	629	3	0	0	
13	0	0	0	0	1	400	632	3	0	0	
14	0	0	0	0	0	421	629	3	0	0	
15	0	0	0	0	0	433	632	3	0	0	
0	0	0	0	0	3	443	630	3	0	0	
1	0	0	0	0	0	455	632	3	0	0	
2	0	0	0	0	0	465	629	3	0	0	
3	0	0	0	0	0	482	632	3	0	0	
4	0	0	0	0	3	490	629	3	0	0	
5	0	0	0	0	0	501	632	3	0	0	
6	0	0	0	0	0	507	628	3	0	0	
7	0	0	0	0	0	518	632	3	0	0	
8	0	0	0	0	3	525	628	3	0	0	
9	0	0	0	0	0	540	632	3	0	0	
10	0	0	0	0	0	551	628	3	0	0	
11	0	0	0	0	0	562	632	3	0	0	
12	0	0	0	0	3	576	630	3	0	0	
13	0	0	0	0	0	583	632	3	0	0	
14	0	0	0	0	0	582	629	3	0	0	
15	0	0	0	0	0	579	632	3	0	0	
0	0	0	0	0	1	566	629	3	0	0	
1	0	0	0	0	0	551	631	3	0	0	
2	0	0	0	0	0	517	629	3	0	0	
3	0	0	0	0	0	479	632	3	0	0	
4	0	0	0	0	3	439	628	3	0	0	
5	0	0	0	0	0	413	632	3	0	0	
6	0	0	0	0	0	398	629	3	0	0	
7	0	0	0	0	0	395	632	3	0	0	
8	0	0	0	0	3	398	629	3	0	0	
9	0	0	0	0	0	408	632	3	0	0	
10	0	0	0	0	0	417	630	3	0	0	
11	0	0	0	0	0	432	632	3	0	0	
12	0	0	0	0	3	444	630	3	0	0	
13	0	0	0	0	0	456	631	3	0	0	
14	0	0	0	0	0	467	629	3	0	0	
15	0	0	0	0	0	477	632	3	0	0	
0	0	0	0	0	3	483	630	3	0	0	
1	0	0	0	0	0	486	632	3	0	0	
2	0	0	0	0	0	487	630	3	0	0	
3	0	0	0	0	0	493	632	3	0	0	
4	0	0	0	0	3	495	631	3	0	0	
5	0	0	0	0	0	498	631	3	0	0	
6	0	0	0	0	0	500	629	3	0	0	
7	0	0	0	0	0	504	632	3	0	0	
8	0	0	0	0	3	505	630	3	0	0	
9	0	0	0	0	0	508	632	3	0	0	
10	0	0	0	0	0	505	629	3	0	0	
11	0	0	0	0	0	509	631	3	0	0	
12	0	0	0	0	3	509	628	3	0	0	
13	0	0	0	0	0	512	631	3	0	0	
14	0	0	0	0	0	509	628	3	0	0	
15	0	0	0	0	0	513	631	3	0	0	
0	0	0	0	0	3	514	628	3	0	0	
1	0	0	0	0	0	517	631	3	0	0	
2	0	0	0	0	0	515	629	3	0	0	
3	0	0	0	0	0	520	631	3	0	0	
4	0	0	0	0	3	517	629	3	0	0	
5	0	0	0	0	0	518	630	3	0	0	
6	0	0	0	0	0	518	628	3	0	0	
7	0	0	0	0	0	519	630	3	0	0	
8	0	0	0	0	3	516	628	3	0	0	
9	0	0	0	0	0	520	630	3	0	0	
10	0	0	0	0	0	517	628	3	0	0	
11	0	0	0	0	0	521	629	3	0	0	
12	0	0	0	0	0	519	628	3	0	0	
13	0	0	0	0	0	522	629	3	0	0	
14	0	0	0	0	0	519	628	3	0	0	
15	0	0	0	0	0	522	629	3	0	0	
0	0	0	0	0	3	522	628	3	0	0	
1	0	0	0	0	0	521	629	3	0	0	
2	0	0	0	0	0	519	628	3	0	0	
3	0	0	0	0	0	520	629	3	0	0	
4	0	0	0	0	3	519	628	3	0	0	
5	0	0	0	0	0	518	629	3	0	0	
6	0	0	0	0	0	516	628	3	0	0	
7	0	0	0	0	0	532	629	3	0	0	
8	0	0	0	0	3	529	627	3	0	0	
9	0	0	0	0	0	534	628	3	0	0	
10	0	0	0	0	0	530	627	3	0	0	
11	0	0	0	0	0	530	629	3	0	0	
12	0	0	0	0	3	519	629	3	0	0	
13	0	0	0	0	0	509	628	3	0	0	
14	0	0	0	0	0	494	628	3	0	0	
15	0	0	0	0	0	491	629	3	0	0	
0	0	0	0	0	3	489	628	3	0	0	
1	0	0	0	0	0	479	629	3	0	0	
2	0	0	0	0	0	485	628	3	0	0	
3	0	0	0	0	0	674	629	3	0	0	
4	0	0	0	0	3	990	628	3	0	0	
5	0	0	0	0	0	1022	628	3	0	0	
6	0	0	0	0	0	558	628	3	0	0	
7	0	0	0	0	0	226	629	3	0	0	
8	0	0	0	0	3	300	628	3	0	0	
9	0	0	0	0	0	386	629	3	0	0	
10	0	0	0	0	0	419	628	3	0	0	
11	0	0	0	0	0	435	628	3	0	0	
12	0	0	0	0	3	444	629	3	0	0	
13	0	0	0	0	0	462	629	3	0	0	
14	0	0	0	0	0	474	629	3	0	0	
15	0	0	0	0	0	490	629	3	0	0	
0	0	0	0	0	3	499	629	3	0	0	
1	0	0	0	0	1	511	628	3	0	0	
2	0	0	0	0	0	511	628	3	0	0	
3	0	0	0	0	0	516	630	3	0	0	
4	0	0	0	0	3	514	629	3	0	0	
5	0	0	0	0	0	525	628	3	0	0	
6	0	0	0	0	0	532	628	3	0	0	
7	0	0	0	0	0	553	628	3	0	0	
8	0	0	0	0	1	570	628	3	0	0	
9	0	0	0	0	0	593	628	3	0	0	
10	0	0	0	0	0	602	628	3	0	0	
11	0	0	0	0	0	606	629	3	0	0	
12	0	0	0	0	3	597	628	3	0	0	
13	0	0	0	0	0	581	629	3	0	0	
14	0	0	0	0	0	550	630	3	0	0	
15	0	0	0	0	0	513	630	3	0	0	
0	0	0	0	0	3	468	629	3	0	0	
1	0	0	0	0	0	435	629	3	0	0	
2	0	0	0	0	0	406	630	3	0	0	
3	0	0	0	0	0	403	629	3	0	0	
4	0	0	0	0	3	401	630	3	0	0	
5	0	0	0	0	0	415	628	3	0	0	
6	0	0	0	0	0	423	628	3	0	0	
7	0	0	0	0	0	437	629	3	0	0	
8	0	0	0	0	3	447	629	3	0	0	
9	0	0	0	0	0	465	629	3	0	0	
10	0	0	0	0	0	469	629	3	0	0	
11	0	0	0	0	0	480	628	3	0	0	
12	0	0	0	0	1	484	629	3	0	0	
13	0	0	0	0	0	492	628	3	0	0	
14	0	0	0	0	0	491	630	3	0	0	
15	0	0	0	0	0	499	629	3	0	0	
0	0	0	0	0	3	500	630	3	0	0	
1	0	0	0	0	0	510	628	3	0	0	
2	0	0	0	0	0	511	630	3	0	0	
3	0	0	0	0	0	519	628	3	0	0	
4	0	0	0	0	3	515	629	3	0	0	
5	0	0	0	0	0	519	628	3	0	0	
6	0	0	0	0	0	512	630	3	0	0	
7	0	0	0	0	0	511	629	3	0	0	
8	0	0	0	0	3	506	629	3	0	0	
9	0	0	0	0	0	513	628	3	0	0	
10	0	0	0	0	0	512	630	3	0	0	
11	0	0	0	0	0	520	629	3	0	0	
12	0	0	0	0	3	517	630	3	0	0	
13	0	0	0	0	0	521	629	3	0	0	
14	0	0	0	0	0	518	630	3	0	0	
15	0	0	0	0	0	522	629	3	0	0	
0	0	0	0	0	3	516	629	3	0	0	
1	0	0	0	0	0	524	628	3	0	0	
2	0	0	0	0	0	522	629	3	0	0	
3	0	0	0	0	0	524	627	3	0	0	
4	0	0	0	0	3	521	630	3	0	0	
5	0	0	0	0	0	524	628	3	0	0	
6	0	0	0	0	0	515	629	3	0	0	
7	0	0	0	0	0	513	628	3	0	0	
8	0	0	0	0	3	508	630	3	0	0	
9	0	0	0	0	0	511	628	3	0	0	
10	0	0	0	0	0	506	630	3	0	0	
11	0	0	0	0	0	510	628	3	0	0	
12	0	0	0	0	3	505	629	3	0	0	
13	0	0	0	0	0	525	628	3	0	0	
14	0	0	0	0	0	528	629	3	0	0	
15	0	0	0	0	0	531	627	3	0	0	
0	0	0	0	0	3	531	629	3	0	0	
1	0	0	0	0	0	531	626	3	0	0	
2	0	0	0	0	0	516	628	3	0	0	
3	0	0	0	0	0	512	627	3	0	0	
4	0	0	0	0	3	494	629	3	0	0	
5	0	0	0	0	0	491	627	3	0	0	
6	0	0	0	0	0	487	629	3	0	0	
7	0	0	0	0	0	492	627	3	0	0	
8	0	0	0	0	1	467	628	3	0	0	
9	0	0	0	0	0	545	627	3	0	0	
10	0	0	0	0	0	814	628	3	0	0	
11	0	0	0	0	0	1022	627	3	0	0	
12	0	0	0	0	3	853	628	3	0	0	
13	0	0	0	0	0	366	627	3	0	0	
14	0	0	0	0	0	230	629	3	0	0	
15	0	0	0	0	0	329	627	3	0	0	
0	0	0	0	0	3	393	629	3	0	0	
1	0	0	0	0	0	429	628	3	0	0	
2	0	0	0	0	0	436	629	3	0	0	
3	0	0	0	0	0	453	628	3	0	0	
4	0	0	0	0	3	460	630	3	0	0	
5	0	0	0	0	0	475	627	3	0	0	
6	0	0	0	0	0	483	630	3	0	0	
7	0	0	0	0	0	497	627	3	0	0	
8	0	0	0	0	3	502	628	3	0	0	
9	0	0	0	0	0	510	627	3	0	0	
10	0	0	0	0	0	509	629	3	0	0	
11	0	0	0	0	0	522	627	3	0	0	
12	0	0	0	0	3	522	628	3	0	0	
13	0	0	0	0	0	544	626	3	0	0	
14	0	0	0	0	0	559	630	3	0	0	
15	0	0	0	0	0	587	627	3	0	0	
0	0	0	0	0	3	600	630	3	0	0	
1	0	0	0	0	0	607	626	3	0	0	
2	0	0	0	0	0	597	628	3	0	0	
3	0	0	0	0	0	588	625	3	0	0	
4	0	0	0	0	3	555	628	3	0	0	
5	0	0	0	0	0	525	624	3	0	0	
6	0	0	0	0	0	480	626	3	0	0	
7	0	0	0	0	0	449	623	3	0	0	
8	0	0	0	0	3	417	623	3	0	0	
9	0	0	0	0	0	408	618	3	0	0	
10	0	0	0	0	0	400	619	3	0	0	
11	0	0	0	0	0	408	614	3	0	0	
12	0	0	0	0	3	414	615	3	0	0	
13	0	0	0	0	1	429	611	3	0	0	
14	0	0	0	0	0	441	614	3	0	0	
15	0	0	0	0	0	462	609	3	0	0	
0	0	0	0	0	3	466	613	3	0	0	
1	0	0	0	0	0	485	608	3	0	0	
2	0	0	0	0	0	487	611	3	0	0	
3	0	0	0	0	0	496	607	3	0	0	
4	0	0	0	0	1	489	609	3	0	0	
5	0	0	0	0	0	505	604	3	0	0	
6	0	0	0	0	0	506	606	3	0	0	
7	0	0	0	0	1	513	602	3	0	0	
8	0	0	0	0	3	515	604	3	0	0	
9	0	0	0	0	0	527	600	3	0	0	
10	0	0	0	0	0	523	602	3	0	0	
11	0	0	0	0	0	526	599	3	0	0	
12	0	0	0	0	3	517	601	3	0	0	
13	0	0	0	0	0	519	598	3	0	0	
14	0	0	0	0	0	514	601	3	0	0	
15	0	0	0	0	0	523	598	3	0	0	
0	0	0	0	0	3	520	601	3	0	0	
1	0	0	0	0	0	526	599	3	0	0	
2	0	0	0	0	0	516	603	3	0	0	
3	0	0	0	0	0	523	601	3	0	0	
4	0	0	0	0	3	512	605	3	0	0	
5	0	0	0	0	0	518	603	3	0	0	
6	0	0	0	0	0	513	607	3	0	0	
7	0	0	0	0	0	520	607	3	0	0	
8	0	0	0	0	3	515	613	3	0	0	
9	0	0	0	0	1	521	611	3	0	0	
10	0	0	0	0	0	511	617	3	0	0	
11	0	0	0	0	0	512	616	3	0	0	
12	0	0	0	0	3	500	620	3	0	0	
13	0	0	0	0	0	501	617	3	0	0	
14	0	0	0	0	0	507	622	3	0	0	
15	0	0	0	0	0	519	620	3	0	0	
0	0	0	0	0	3	518	624	3	0	0	
1	0	0	0	0	0	531	621	3	0	0	
2	0	0	0	0	0	524	625	3	0	0	
3	0	0	0	0	0	523	621	3	0	0	
4	0	0	0	0	3	504	625	3	0	0	
5	0	0	0	0	1	496	621	3	0	0	
6	0	0	0	0	0	483	624	3	0	0	
7	0	0	0	0	0	491	621	3	0	0	
8	0	0	0	0	3	482	625	3	0	0	
9	0	0	0	0	0	479	622	3	0	0	
10	0	0	0	0	0	628	627	3	0	0	
11	0	0	0	0	0	943	624	3	0	0	
12	0	0	0	0	3	1022	628	3	0	0	
13	0	0	0	0	0	657	623	3	0	0	
14	0	0	0	0	0	230	627	3	0	0	
15	0	0	0	0	0	276	624	3	0	0	
0	0	0	0	0	1	368	628	3	0	0	
1	0	0	0	0	0	427	624	3	0	0	
2	0	0	0	0	0	434	627	3	0	0	
3	0	0	0	0	0	450	624	3	0	0	
4	0	0	0	0	3	455	627	3	0	0	
5	0	0	0	0	0	477	624	3	0	0	
6	0	0	0	0	0	481	628	3	0	0	
7	0	0	0	0	1	496	624	3	0	0	
8	0	0	0	0	3	499	628	3	0	0	
9	0	0	0	0	0	510	624	3	0	0	
10	0	0	0	0	0	512	628	3	0	0	
11	0	0	0	0	0	531	625	3	0	0	
12	0	0	0	0	3	540	629	3	0	0	
13	0	0	0	0	0	564	624	3	0	0	
14	0	0	0	0	0	572	629	3	0	0	
15	0	0	0	0	0	593	624	3	0	0	
0	0	0	0	0	3	599	628	3	0	0	
1	0	0	0	0	0	611	624	3	0	0	
2	0	0	0	0	0	603	628	3	0	0	
3	0	0	0	0	1	602	624	3	0	0	
4	0	0	0	0	3	581	630	3	0	0	
5	0	0	0	0	0	552	624	3	0	0	
6	0	0	0	0	0	496	628	3	0	0	
7	0	0	0	0	0	455	624	3	0	0	
8	0	0	0	0	3	409	629	3	0	0	
9	0	0	0	0	0	393	625	3	0	0	
10	0	0	0	0	0	379	629	3	0	0	
11	0	0	0	0	0	387	624	3	0	0	
12	0	0	0	0	3	389	629	3	0	0	
13	0	0	0	0	0	408	624	3	0	0	
14	0	0	0	0	0	414	629	3	0	0	
15	0	0	0	0	0	433	624	3	0	0	
0	0	0	0	0	3	439	629	3	0	0	
1	0	0	0	0	0	456	623	3	0	0	
2	0	0	0	0	0	462	628	3	0	0	
3	0	0	0	0	0	480	625	3	0	0	
4	0	0	0	0	3	480	631	3	0	0	
5	0	0	0	0	1	492	624	3	0	0	
6	0	0	0	0	0	493	631	3	0	0	
7	0	0	0	0	0	504	625	3	0	0	
8	0	0	0	0	3	501	630	3	0	0	
9	0	0	0	0	1	508	625	3	0	0	
10	0	0	0	0	0	503	632	3	0	0	
11	0	0	0	0	0	508	626	3	0	0	
12	0	0	0	0	1	501	632	3	0	0	
13	0	0	0	0	0	508	626	3	0	0	
14	0	0	0	0	0	503	631	3	0	0	
15	0	0	0	0	0	512	626	3	0	0	
0	0	0	0	0	3	509	631	3	0	0	
1	0	0	0	0	1	516	625	3	0	0	
2	0	0	0	0	0	511	632	3	0	0	
3	0	0	0	0	0	520	626	3	0	0	
4	0	0	0	0	3	512	631	3	0	0	
5	0	0	0	0	0	519	627	3	0	0	
6	0	0	0	0	0	511	632	3	0	0	
7	0	0	0	0	0	520	627	3	0	0	
8	0	0	0	0	3	513	632	3	0	0	
9	0	0	0	0	0	521	627	3	0	0	
10	0	0	0	0	0	517	632	3	0	0	
11	0	0	0	0	0	521	626	3	0	0	
12	0	0	0	0	3	515	632	3	0	0	
13	0	0	0	0	0	539	627	3	0	0	
14	0	0	0	0	0	540	632	3	0	0	
15	0	0	0	0	0	539	626	3	0	0	
0	0	0	0	0	3	536	633	3	0	0	
1	0	0	0	0	0	536	627	3	0	0	
2	0	0	0	0	0	526	632	3	0	0	
3	0	0	0	0	1	526	627	3	0	0	
4	0	0	0	0	3	510	634	3	0	0	
5	0	0	0	0	0	510	627	3	0	0	
6	0	0	0	0	0	500	634	3	0	0	
7	0	0	0	0	0	510	627	3	0	0	
8	0	0	0	0	3	478	633	3	0	0	
9	0	0	0	0	0	560	627	3	0	0	
10	0	0	0	0	0	813	634	3	0	0	
11	0	0	0	0	0	1022	628	3	0	0	
12	0	0	0	0	3	861	632	3	0	0	
13	0	0	0	0	0	338	627	3	0	0	
14	0	0	0	0	0	242	633	3	0	0	
15	0	0	0	0	0	370	625	3	0	0	
0	0	0	0	0	3	421	633	3	0	0	
1	0	0	0	0	0	443	627	3	0	0	
2	0	0	0	0	0	443	632	3	0	0	
3	0	0	0	0	0	462	627	3	0	0	
4	0	0	0	0	3	467	633	3	0	0	
5	0	0	0	0	0	486	627	3	0	0	
6	0	0	0	0	0	492	634	3	0	0	
7	0	0	0	0	0	508	626	3	0	0	
8	0	0	0	0	1	507	633	3	0	0	
9	0	0	0	0	0	515	626	3	0	0	
10	0	0	0	0	0	512	633	3	0	0	
11	0	0	0	0	0	532	626	3	0	0	
12	0	0	0	0	3	538	634	3	0	0	
13	0	0	0	0	0	565	626	3	0	0	
14	0	0	0	0	0	571	633	3	0	0	
15	0	0	0	0	0	592	626	3	0	0	
0	0	0	0	0	3	590	633	3	0	0	
1	0	0	0	0	1	597	625	3	0	0	
2	0	0	0	0	0	585	633	3	0	0	
3	0	0	0	0	0	585	627	3	0	0	
4	0	0	0	0	3	556	635	3	0	0	
5	0	0	0	0	0	521	627	3	0	0	
6	0	0	0	0	0	464	634	3	0	0	
7	0	0	0	0	0	429	627	3	0	0	
8	0	0	0	0	3	395	634	3	0	0	
9	0	0	0	0	0	390	627	3	0	0	
10	0	0	0	0	0	383	634	3	0	0	
11	0	0	0	0	0	399	627	3	0	0	
12	0	0	0	0	3	399	632	3	0	0	
13	0	0	0	0	1	423	626	3	0	0	
14	0	0	0	0	0	430	634	3	0	0	
15	0	0	0	0	0	450	627	3	0	0	
0	0	0	0	0	3	454	633	3	0	0	
1	0	0	0	0	0	470	627	3	0	0	
2	0	0	0	0	0	471	634	3	0	0	
3	0	0	0	0	0	484	627	3	0	0	
4	0	0	0	0	3	483	634	3	0	0	
5	0	0	0	0	0	496	627	3	0	0	
6	0	0	0	0	0	493	634	3	0	0	
7	0	0	0	0	0	505	628	3	0	0	
8	0	0	0	0	3	497	634	3	0	0	
9	0	0	0	0	0	508	627	3	0	0	
10	0	0	0	0	0	502	635	3	0	0	
11	0	0	0	0	0	512	627	3	0	0	
12	0	0	0	0	3	503	634	3	0	0	
13	0	0	0	0	1	512	627	3	0	0	
14	0	0	0	0	0	503	635	3	0	0	
15	0	0	0	0	1	511	626	3	0	0	
0	0	0	0	0	3	505	636	3	0	0	
1	0	0	0	0	0	515	627	3	0	0	
2	0	0	0	0	0	510	635	3	0	0	
3	0	0	0	0	0	520	626	3	0	0	
4	0	0	0	0	1	513	635	3	0	0	
5	0	0	0	0	0	522	626	3	0	0	
6	0	0	0	0	0	515	635	3	0	0	
7	0	0	0	0	0	521	627	3	0	0	
8	0	0	0	0	3	514	635	3	0	0	
9	0	0	0	0	0	522	628	3	0	0	
10	0	0	0	0	0	513	635	3	0	0	
11	0	0	0	0	0	522	626	3	0	0	
12	0	0	0	0	3	513	635	3	0	0	
13	0	0	0	0	0	520	627	3	0	0	
14	0	0	0	0	0	511	635	3	0	0	
15	0	0	0	0	0	521	627	3	0	0	
0	0	0	0	0	3	512	636	3	0	0	
1	0	0	0	0	0	533	627	3	0	0	
2	0	0	0	0	0	534	637	3	0	0	
3	0	0	0	0	0	538	627	3	0	0	
4	0	0	0	0	3	532	636	3	0	0	
5	0	0	0	0	0	538	626	3	0	0	
6	0	0	0	0	0	529	636	3	0	0	
7	0	0	0	0	0	527	627	3	0	0	
8	0	0	0	0	1	505	636	3	0	0	
9	0	0	0	0	0	504	627	3	0	0	
10	0	0	0	0	0	492	636	3	0	0	
11	0	0	0	0	0	503	627	3	0	0	
12	0	0	0	0	3	468	636	3	0	0	
13	0	0	0	0	1	529	627	3	0	0	
14	0	0	0	0	0	761	635	3	0	0	
15	0	0	0	0	0	1022	627	3	0	0	
0	0	0	0	0	3	932	635	3	0	0	
1	0	0	0	0	0	390	627	3	0	0	
2	0	0	0	0	0	234	635	3	0	0	
3	0	0	0	0	0	366	626	3	0	0	
4	0	0	0	0	3	414	636	3	0	0	
5	0	0	0	0	0	430	626	3	0	0	
6	0	0	0	0	0	430	635	3	0	0	
7	0	0	0	0	0	448	627	3	0	0	
8	0	0	0	0	3	448	634	3	0	0	
9	0	0	0	0	1	467	624	3	0	0	
10	0	0	0	0	0	475	633	3	0	0	
11	0	0	0	0	0	493	622	3	0	0	
12	0	0	0	0	3	497	627	3	0	0	
13	0	0	0	0	0	514	615	3	0	0	
14	0	0	0	0	0	513	621	3	0	0	
15	0	0	0	0	0	530	611	3	0	0	
0	0	0	0	0	3	534	617	3	0	0	
1	0	0	0	0	0	562	606	3	0	0	
2	0	0	0	0	0	565	614	3	0	0	
3	0	0	0	0	0	585	604	3	0	0	
4	0	0	0	0	3	586	611	3	0	0	
5	0	0	0	0	0	592	602	3	0	0	
6	0	0	0	0	0	581	609	3	0	0	
7	0	0	0	0	0	580	601	3	0	0	
8	0	0	0	0	3	557	608	2	0	0	
9	0	0	0	0	0	534	600	3	0	0	
10	0	0	0	0	0	484	608	3	0	0	
11	0	0	0	0	0	449	598	3	0	0	
12	0	0	0	0	3	411	607	3	0	0	
13	0	0	0	0	0	403	598	3	0	0	
14	0	0	0	0	0	391	606	3	0	0	
15	0	0	0	0	0	400	597	3	0	0	
0	0	0	0	0	3	404	606	2	0	0	
1	0	0	0	0	0	423	598	3	0	0	
2	0	0	0	0	0	427	606	3	0	0	
3	0	0	0	0	0	443	597	3	0	0	
4	0	0	0	0	1	448	606	3	0	0	
5	0	0	0	0	0	466	598	3	0	0	
6	0	0	0	0	0	465	607	3	0	0	
7	0	0	0	0	1	485	598	2	0	0	
8	0	0	0	0	3	485	608	3	0	0	
9	0	0	0	0	0	495	599	3	0	0	
10	0	0	0	0	0	497	608	3	0	0	
11	0	0	0	0	0	507	600	3	0	0	
12	0	0	0	0	3	503	610	3	0	0	
13	0	0	0	0	0	509	600	3	0	0	
14	0	0	0	0	0	504	610	3	0	0	
15	0	0	0	0	0	513	602	3	0	0	
0	0	0	0	0	3	503	612	3	0	0	
1	0	0	0	0	0	508	603	3	0	0	
2	0	0	0	0	0	504	612	3	0	0	
3	0	0	0	0	0	512	604	3	0	0	
4	0	0	0	0	3	508	612	3	0	0	
5	0	0	0	0	0	516	604	3	0	0	
6	0	0	0	0	0	506	611	3	0	0	
7	0	0	0	0	0	513	603	3	0	0	
8	0	0	0	0	3	507	612	3	0	0	
9	0	0	0	0	1	514	601	2	0	0	
10	0	0	0	0	0	508	611	3	0	0	
11	0	0	0	0	0	518	602	3	0	0	
12	0	0	0	0	3	510	611	3	0	0	
13	0	0	0	0	0	518	602	3	0	0	
14	0	0	0	0	0	515	611	3	0	0	
15	0	0	0	0	0	524	601	3	0	0	
0	0	0	0	0	3	518	611	3	0	0	
1	0	0	0	0	1	528	601	3	0	0	
2	0	0	0	0	0	516	611	3	0	0	
3	0	0	0	0	0	522	601	3	0	0	
4	0	0	0	0	3	514	611	3	0	0	
5	0	0	0	0	1	524	600	3	0	0	
6	0	0	0	0	0	518	611	3	0	0	
7	0	0	0	0	0	526	600	3	0	0	
8	0	0	0	0	3	519	609	2	0	0	
9	0	0	0	0	0	527	599	3	0	0	
10	0	0	0	0	0	524	608	3	0	0	
11	0	0	0	0	0	543	600	3	0	0	
12	0	0	0	0	3	537	609	3	0	0	
13	0	0	0	0	0	537	601	3	0	0	
14	0	0	0	0	0	525	611	3	0	0	
15	0	0	0	0	0	529	604	3	0	0	
0	0	0	0	0	1	516	614	3	0	0	
1	0	0	0	0	0	510	606	3	0	0	
2	0	0	0	0	0	491	616	3	0	0	
3	0	0	0	0	0	497	608	3	0	0	
4	0	0	0	0	3	495	618	2	0	0	
5	0	0	0	0	0	493	609	3	0	0	
6	0	0	0	0	0	481	619	3	0	0	
7	0	0	0	0	1	629	609	3	0	0	
8	0	0	0	0	3	930	619	3	0	0	
9	0	0	0	0	0	1022	608	3	0	0	
10	0	0	0	0	0	623	617	3	0	0	
11	0	0	0	0	1	251	605	3	0	0	
12	0	0	0	0	3	307	614	3	0	0	
13	0	0	0	0	0	403	604	3	0	0	
14	0	0	0	0	0	426	612	3	0	0	
15	0	0	0	0	0	441	601	3	0	0	
0	0	0	0	0	3	441	609	3	0	0	
1	0	0	0	0	0	460	599	3	0	0	
2	0	0	0	0	0	463	608	3	0	0	
3	0	0	0	0	0	484	596	2	0	0	
4	0	0	0	0	3	486	606	3	0	0	
5	0	0	0	0	0	501	596	3	0	0	
6	0	0	0	0	0	498	606	3	0	0	
7	0	0	0	0	0	512	597	3	0	0	
8	0	0	0	0	3	514	609	3	0	0	
9	0	0	0	0	0	532	601	3	0	0	
10	0	0	0	0	0	536	612	3	0	0	
11	0	0	0	0	0	553	604	3	0	0	
12	0	0	0	0	3	555	615	3	0	0	
13	0	0	0	0	0	571	607	3	0	0	
14	0	0	0	0	0	567	617	3	0	0	
15	0	0	0	0	0	574	609	3	0	0	
0	0	0	0	0	3	562	618	3	0	0	
1	0	0	0	0	0	562	608	3	0	0	
2	0	0	0	0	0	533	619	3	0	0	
3	0	0	0	0	0	506	608	3	0	0	
4	0	0	0	0	3	460	619	3	0	0	
5	0	0	0	0	0	436	609	3	0	0	
6	0	0	0	0	0	409	619	3	0	0	
7	0	0	0	0	0	411	609	3	0	0	
8	0	0	0	0	3	410	620	3	0	0	
9	0	0	0	0	0	423	611	3	0	0	
10	0	0	0	0	0	426	621	3	0	0	
11	0	0	0	0	0	447	611	3	0	0	
12	0	0	0	0	1	454	621	3	0	0	
13	0	0	0	0	0	471	611	3	0	0	
14	0	0	0	0	0	478	622	3	0	0	
15	0	0	0	0	0	493	612	3	0	0	
0	0	0	0	0	3	494	621	3	0	0	
1	0	0	0	0	0	499	611	3	0	0	
2	0	0	0	0	0	497	621	3	0	0	
3	0	0	0	0	0	505	611	3	0	0	
4	0	0	0	0	3	499	620	3	0	0	
5	0	0	0	0	0	508	611	3	0	0	
6	0	0	0	0	0	501	621	3	0	0	
7	0	0	0	0	0	509	611	3	0	0	
8	0	0	0	0	3	506	621	3	0	0	
9	0	0	0	0	0	512	611	3	0	0	
10	0	0	0	0	0	506	621	3	0	0	
11	0	0	0	0	0	512	608	3	0	0	
12	0	0	0	0	3	506	621	3	0	0	
13	0	0	0	0	0	515	611	3	0	0	
14	0	0	0	0	0	508	621	3	0	0	
15	0	0	0	0	0	513	612	3	0	0	
0	0	0	0	0	3	509	621	3	0	0	
1	0	0	0	0	0	520	611	3	0	0	
2	0	0	0	0	0	516	622	3	0	0	
3	0	0	0	0	0	525	611	3	0	0	
4	0	0	0	0	3	517	622	3	0	0	
5	0	0	0	0	0	527	611	3	0	0	
6	0	0	0	0	0	517	622	3	0	0	
7	0	0	0	0	0	525	612	3	0	0	
8	0	0	0	0	3	518	623	3	0	0	
9	0	0	0	0	0	524	612	3	0	0	
10	0	0	0	0	0	512	623	3	0	0	
11	0	0	0	0	0	519	612	3	0	0	
12	0	0	0	0	3	516	622	3	0	0	
13	0	0	0	0	0	523	613	3	0	0	
14	0	0	0	0	0	513	624	3	0	0	
15	0	0	0	0	0	520	612	3	0	0	
0	0	0	0	0	3	513	623	3	0	0	
1	0	0	0	0	0	521	613	3	0	0	
2	0	0	0	0	0	516	623	3	0	0	
3	0	0	0	0	0	522	614	3	0	0	
4	0	0	0	0	3	517	624	3	0	0	
5	0	0	0	0	0	517	614	3	0	0	
6	0	0	0	0	0	515	625	3	0	0	
7	0	0	0	0	1	536	614	3	0	0	
8	0	0	0	0	0	528	624	3	0	0	
9	0	0	0	0	0	536	615	3	0	0	
10	0	0	0	0	0	528	625	3	0	0	
11	0	0	0	0	0	532	613	3	0	0	
12	0	0	0	0	3	515	625	3	0	0	
13	0	0	0	0	0	515	614	3	0	0	
14	0	0	0	0	0	500	624	3	0	0	
15	0	0	0	0	0	503	615	3	0	0	
0	0	0	0	0	3	497	625	3	0	0	
1	0	0	0	0	0	482	614	3	0	0	
2	0	0	0	0	0	500	625	3	0	0	
3	0	0	0	0	0	724	615	3	0	0	
4	0	0	0	0	3	1022	625	3	0	0	
5	0	0	0	0	0	947	615	3	0	0	
6	0	0	0	0	0	454	625	3	0	0	
7	0	0	0	0	0	252	615	3	0	0	
8	0	0	0	0	3	336	624	3	0	0	
9	0	0	0	0	0	414	614	3	0	0	
10	0	0	0	0	0	426	624	3	0	0	
11	0	0	0	0	0	441	614	3	0	0	
12	0	0	0	0	3	443	625	3	0	0	
13	0	0	0	0	0	462	614	3	0	0	
14	0	0	0	0	0	467	624	3	0	0	
15	0	0	0	0	0	480	615	3	0	0	
0	0	0	0	0	3	487	624	3	0	0	
1	0	0	0	0	0	502	614	3	0	0	
2	0	0	0	0	0	505	625	3	0	0	
3	0	0	0	0	0	513	615	3	0	0	
4	0	0	0	0	3	522	624	3	0	0	
5	0	0	0	0	0	540	614	3	0	0	
6	0	0	0	0	0	542	625	3	0	0	
7	0	0	0	0	0	553	615	3	0	0	
8	0	0	0	0	3	556	624	3	0	0	
9	0	0	0	0	0	571	614	3	0	0	
10	0	0	0	0	0	572	624	3	0	0	
11	0	0	0	0	0	575	613	3	0	0	
12	0	0	0	0	3	563	623	3	0	0	
13	0	0	0	0	0	559	613	3	0	0	
14	0	0	0	0	0	529	624	3	0	0	
15	0	0	0	0	0	508	614	3	0	0	
0	0	0	0	0	3	470	624	3	0	0	
1	0	0	0	0	0	451	614	3	0	0	
2	0	0	0	0	0	427	625	3	0	0	
3	0	0	0	0	0	423	614	3	0	0	
4	0	0	0	0	1	419	624	3	0	0	
5	0	0	0	0	0	433	615	3	0	0	
6	0	0	0	0	0	438	624	3	0	0	
7	0	0	0	0	0	461	614	3	0	0	
8	0	0	0	0	3	447	625	3	0	0	
9	0	0	0	0	0	469	614	3	0	0	
10	0	0	0	0	0	472	624	3	0	0	
11	0	0	0	0	0	492	614	3	0	0	
12	0	0	0	0	3	491	624	3	0	0	
13	0	0	0	0	0	504	614	3	0	0	
14	0	0	0	0	0	499	624	3	0	0	
15	0	0	0	0	0	508	615	3	0	0	
0	0	0	0	0	3	503	625	3	0	0	
1	0	0	0	0	0	516	615	3	0	0	
2	0	0	0	0	0	505	626	3	0	0	
3	0	0	0	0	0	512	615	3	0	0	
4	0	0	0	0	3	504	625	3	0	0	
5	0	0	0	0	0	511	614	3	0	0	
6	0	0	0	0	0	504	624	3	0	0	
7	0	0	0	0	0	510	614	3	0	0	
8	0	0	0	0	3	502	625	3	0	0	
9	0	0	0	0	0	512	614	3	0	0	
10	0	0	0	0	0	504	624	3	0	0	
11	0	0	0	0	0	512	614	3	0	0	
12	0	0	0	0	3	507	624	3	0	0	
13	0	0	0	0	0	517	614	3	0	0	
14	0	0	0	0	0	510	624	3	0	0	
15	0	0	0	0	0	516	615	3	0	0	
0	0	0	0	0	3	511	624	3	0	0	
1	0	0	0	0	0	518	615	3	0	0	
2	0	0	0	0	0	515	625	3	0	0	
3	0	0	0	0	0	519	615	3	0	0	
4	0	0	0	0	3	514	624	3	0	0	
5	0	0	0	0	0	523	614	3	0	0	
6	0	0	0	0	0	513	625	3	0	0	
7	0	0	0	0	0	525	615	3	0	0	
8	0	0	0	0	3	518	625	3	0	0	
9	0	0	0	0	0	522	614	3	0	0	
10	0	0	0	0	0	517	624	3	0	0	
11	0	0	0	0	0	520	615	3	0	0	
12	0	0	0	0	3	515	625	3	0	0	
13	0	0	0	0	0	522	615	3	0	0	
14	0	0	0	0	0	515	625	3	0	0	
15	0	0	0	0	0	521	615	3	0	0	
0	0	0	0	0	1	520	625	3	0	0	
1	0	0	0	0	1	538	614	3	0	0	
2	0	0	0	0	0	525	625	3	0	0	
3	0	0	0	0	0	540	615	3	0	0	
4	0	0	0	0	3	531	624	3	0	0	
5	0	0	0	0	0	528	614	3	0	0	
6	0	0	0	0	0	515	624	3	0	0	
7	0	0	0	0	0	512	614	3	0	0	
8	0	0	0	0	3	500	624	3	0	0	
9	0	0	0	0	0	504	614	3	0	0	
10	0	0	0	0	0	495	623	3	0	0	
11	0	0	0	0	0	477	615	3	0	0	
12	0	0	0	0	3	530	624	3	0	0	
13	0	0	0	0	0	795	614	3	0	0	
14	0	0	0	0	0	1022	624	3	0	0	
15	0	0	0	0	0	847	615	3	0	0	
0	0	0	0	0	3	376	624	3	0	0	
1	0	0	0	0	0	263	614	3	0	0	
2	0	0	0	0	0	337	624	3	0	0	
3	0	0	0	0	0	412	615	3	0	0	
4	0	0	0	0	0	432	624	3	0	0	
5	0	0	0	0	0	449	614	3	0	0	
6	0	0	0	0	0	459	624	3	0	0	
7	0	0	0	0	0	478	615	3	0	0	
8	0	0	0	0	3	479	624	3	0	0	
9	0	0	0	0	0	500	614	3	0	0	
10	0	0	0	0	0	500	624	3	0	0	
11	0	0	0	0	0	517	614	3	0	0	
12	0	0	0	0	3	516	625	3	0	0	
13	0	0	0	0	0	525	615	3	0	0	
14	0	0	0	0	0	515	625	3	0	0	
15	0	0	0	0	0	523	615	3	0	0	
0	0	0	0	0	3	519	626	3	0	0	
1	0	0	0	0	0	540	615	3	0	0	
2	0	0	0	0	0	548	625	3	0	0	
3	0	0	0	0	0	572	615	3	0	0	
4	0	0	0	0	3	574	625	3	0	0	
5	0	0	0	0	0	581	615	3	0	0	
6	0	0	0	0	0	569	625	3	0	0	
7	0	0	0	0	0	561	615	3	0	0	
8	0	0	0	0	3	521	624	3	0	0	
9	0	0	0	0	1	500	615	3	0	0	
10	0	0	0	0	0	460	625	3	0	0	
11	0	0	0	0	0	440	615	3	0	0	
12	0	0	0	0	3	411	624	3	0	0	
13	0	0	0	0	0	408	614	3	0	0	
14	0	0	0	0	0	393	625	3	0	0	
15	0	0	0	0	0	398	615	3	0	0	
0	0	0	0	0	3	403	624	3	0	0	
1	0	0	0	0	0	424	615	3	0	0	
2	0	0	0	0	0	431	625	3	0	0	
3	0	0	0	0	0	456	614	3	0	0	
4	0	0	0	0	3	467	624	3	0	0	
5	0	0	0	0	0	487	614	3	0	0	
6	0	0	0	0	0	486	624	3	0	0	
7	0	0	0	0	0	492	614	3	0	0	
8	0	0	0	0	3	489	624	3	0	0	
9	0	0	0	0	0	504	615	3	0	0	
10	0	0	0	0	0	500	624	3	0	0	
11	0	0	0	0	0	504	614	3	0	0	
12	0	0	0	0	3	498	624	3	0	0	
13	0	0	0	0	0	510	614	3	0	0	
14	0	0	0	0	0	504	624	3	0	0	
15	0	0	0	0	0	514	614	3	0	0	
0	0	0	0	0	0	506	624	3	0	0	
1	0	0	0	0	0	512	614	3	0	0	
2	0	0	0	0	0	509	625	3	0	0	
3	0	0	0	0	0	519	614	3	0	0	
4	0	0	0	0	3	518	624	3	0	0	
5	0	0	0	0	0	526	614	3	0	0	
6	0	0	0	0	0	520	624	3	0	0	
7	0	0	0	0	0	523	615	3	0	0	
8	0	0	0	0	3	514	625	3	0	0	
9	0	0	0	0	0	517	615	3	0	0	
10	0	0	0	0	0	510	625	3	0	0	
11	0	0	0	0	0	518	615	3	0	0	
12	0	0	0	0	3	511	625	3	0	0	
13	0	0	0	0	0	521	615	3	0	0	
14	0	0	0	0	0	519	625	3	0	0	
15	0	0	0	0	0	536	615	3	0	0	
0	0	0	0	0	3	542	626	3	0	0	
1	0	0	0	0	0	546	615	3	0	0	
2	0	0	0	0	0	544	626	3	0	0	
3	0	0	0	0	0	554	616	3	0	0	
4	0	0	0	0	3	540	626	3	0	0	
5	0	0	0	0	0	535	615	3	0	0	
6	0	0	0	0	0	521	625	3	0	0	
7	0	0	0	0	0	513	615	3	0	0	
8	0	0	0	0	3	508	626	3	0	0	
9	0	0	0	0	0	509	615	3	0	0	
10	0	0	0	0	0	488	626	3	0	0	
11	0	0	0	0	0	551	616	3	0	0	
12	0	0	0	0	3	824	626	3	0	0	
13	0	0	0	0	0	1022	616	3	0	0	
14	0	0	0	0	0	865	627	3	0	0	
15	0	0	0	0	0	429	617	3	0	0	
0	0	0	0	0	3	245	627	3	0	0	
1	0	0	0	0	0	323	617	3	0	0	
2	0	0	0	0	0	385	625	3	0	0	
3	0	0	0	0	0	422	614	3	0	0	
4	0	0	0	0	3	423	622	3	0	0	
5	0	0	0	0	0	434	609	3	0	0	
6	0	0	0	0	0	445	617	3	0	0	
7	0	0	0	0	0	471	605	3	0	0	
8	0	0	0	0	3	488	613	3	0	0	
9	0	0	0	0	0	512	602	3	0	0	
10	0	0	0	0	0	515	611	3	0	0	
11	0	0	0	0	0	521	600	3	0	0	
12	0	0	0	0	1	514	609	3	0	0	
13	0	0	0	0	1	527	598	3	0	0	
14	0	0	0	0	0	532	608	3	0	0	
15	0	0	0	0	0	551	598	3	0	0	
0	0	0	0	0	3	567	607	2	0	0	
1	0	0	0	0	0	594	597	3	0	0	
2	0	0	0	0	0	608	607	3	0	0	
3	0	0	0	0	0	619	597	3	0	0	
4	0	0	0	0	3	607	606	3	0	0	
5	0	0	0	0	0	588	595	3	0	0	
6	0	0	0	0	0	553	606	3	0	0	
7	0	0	0	0	0	518	596	3	0	0	
8	0	0	0	0	3	465	605	3	0	0	
9	0	0	0	0	0	433	595	3	0	0	
10	0	0	0	0	0	408	604	3	0	0	
11	0	0	0	0	0	406	595	3	0	0	
12	0	0	0	0	3	401	604	3	0	0	
13	0	0	0	0	0	412	594	3	0	0	
14	0	0	0	0	0	413	604	3	0	0	
15	0	0	0	0	0	423	595	3	0	0	
0	0	0	0	0	3	430	604	3	0	0	
1	0	0	0	0	0	448	594	3	0	0	
2	0	0	0	0	0	459	603	3	0	0	
3	0	0	0	0	0	479	593	3	0	0	
4	0	0	0	0	3	483	603	3	0	0	
5	0	0	0	0	0	490	593	3	0	0	
6	0	0	0	0	0	488	603	3	0	0	
7	0	0	0	0	0	493	593	3	0	0	
8	0	0	0	0	3	490	603	3	0	0	
9	0	0	0	0	0	494	593	3	0	0	
10	0	0	0	0	0	489	604	3	0	0	
11	0	0	0	0	0	496	594	3	0	0	
12	0	0	0	0	3	488	602	3	0	0	
13	0	0	0	0	0	494	593	3	0	0	
14	0	0	0	0	0	487	604	3	0	0	
15	0	0	0	0	0	492	593	3	0	0	
0	0	0	0	0	3	493	603	3	0	0	
1	0	0	0	0	0	497	593	3	0	0	
2	0	0	0	0	0	494	603	3	0	0	
3	0	0	0	0	0	507	592	3	0	0	
4	0	0	0	0	3	511	602	2	0	0	
5	0	0	0	0	0	529	591	3	0	0	
6	0	0	0	0	0	528	601	3	0	0	
7	0	0	0	0	0	536	592	3	0	0	
8	0	0	0	0	0	519	603	3	0	0	
9	0	0	0	0	0	527	592	3	0	0	
10	0	0	0	0	0	519	602	3	0	0	
11	0	0	0	0	0	518	592	3	0	0	
12	0	0	0	0	3	507	603	3	0	0	
13	0	0	0	0	0	505	593	3	0	0	
14	0	0	0	0	0	499	604	3	0	0	
15	0	0	0	0	0	508	593	3	0	0	
0	0	0	0	0	3	499	603	3	0	0	
1	0	0	0	0	0	525	593	3	0	0	
2	0	0	0	0	0	537	603	3	0	0	
3	0	0	0	0	0	573	593	3	0	0	
4	0	0	0	0	3	561	604	3	0	0	
5	0	0	0	0	0	596	592	3	0	0	
6	0	0	0	0	0	797	603	3	0	0	
7	0	0	0	0	0	1022	593	3	0	0	
8	0	0	0	0	3	990	603	3	0	0	
9	0	0	0	0	0	435	592	3	0	0	
10	0	0	0	0	0	205	602	3	0	0	
11	0	0	0	0	0	342	592	3	0	0	
12	0	0	0	0	3	405	602	3	0	0	
13	0	0	0	0	0	422	592	3	0	0	
14	0	0	0	0	0	419	602	3	0	0	
15	0	0	0	0	0	428	593	3	0	0	
0	0	0	0	0	3	427	602	3	0	0	
1	0	0	0	0	0	433	592	3	0	0	
2	0	0	0	0	0	455	601	3	0	0	
3	0	0	0	0	0	494	592	3	0	0	
4	0	0	0	0	3	515	602	3	0	0	
5	0	0	0	0	0	524	593	3	0	0	
6	0	0	0	0	0	523	601	3	0	0	
7	0	0	0	0	0	534	593	3	0	0	
8	0	0	0	0	3	546	603	3	0	0	
9	0	0	0	0	0	565	592	3	0	0	
10	0	0	0	0	0	574	602	3	0	0	
11	0	0	0	0	0	595	593	2	0	0	
12	0	0	0	0	3	604	602	3	0	0	
13	0	0	0	0	0	615	593	3	0	0	
14	0	0	0	0	0	603	602	3	0	0	
15	0	0	0	0	0	587	593	3	0	0	
0	0	0	0	0	3	557	602	2	0	0	
1	0	0	0	0	1	525	592	3	0	0	
2	0	0	0	0	0	471	603	3	0	0	
3	0	0	0	0	0	443	593	3	0	0	
4	0	0	0	0	1	413	603	2	0	0	
5	0	0	0	0	0	400	593	3	0	0	
6	0	0	0	0	0	396	602	3	0	0	
7	0	0	0	0	0	399	593	3	0	0	
8	0	0	0	0	3	398	602	2	0	0	
9	0	0	0	0	0	410	594	3	0	0	
10	0	0	0	0	0	427	603	3	0	0	
11	0	0	0	0	0	444	595	3	0	0	
12	0	0	0	0	3	451	602	3	0	0	
13	0	0	0	0	0	459	594	3	0	0	
14	0	0	0	0	0	463	602	3	0	0	
15	0	0	0	0	0	481	593	3	0	0	
0	0	0	0	0	3	480	602	3	0	0	
1	0	0	0	0	0	489	593	3	0	0	
2	0	0	0	0	0	495	601	3	0	0	
3	0	0	0	0	0	511	593	3	0	0	
4	0	0	0	0	3	507	601	3	0	0	
5	0	0	0	0	0	518	593	3	0	0	
6	0	0	0	0	0	511	601	3	0	0	
7	0	0	0	0	0	513	592	3	0	0	
8	0	0	0	0	3	507	600	3	0	0	
9	0	0	0	0	0	511	591	3	0	0	
10	0	0	0	0	0	505	600	3	0	0	
11	0	0	0	0	0	512	591	3	0	0	
12	0	0	0	0	3	508	601	3	0	0	
13	0	0	0	0	0	515	591	3	0	0	
14	0	0	0	0	0	508	600	3	0	0	
15	0	0	0	0	0	516	593	3	0	0	
0	0	0	0	0	3	513	602	3	0	0	
1	0	0	0	0	0	524	595	3	0	0	
2	0	0	0	0	0	530	606	3	0	0	
3	0	0	0	0	0	535	600	3	0	0	
4	0	0	0	0	3	531	608	3	0	0	
5	0	0	0	0	0	536	602	3	0	0	
6	0	0	0	0	0	530	611	3	0	0	
7	0	0	0	0	0	524	604	3	0	0	
8	0	0	0	0	3	508	612	3	0	0	
9	0	0	0	0	1	489	604	3	0	0	
10	0	0	0	0	0	476	614	3	0	0	
11	0	0	0	0	0	480	605	3	0	0	
12	0	0	0	0	3	479	614	3	0	0	
13	0	0	0	0	0	476	606	3	0	0	
14	0	0	0	0	0	483	615	3	0	0	
15	0	0	0	0	0	677	607	3	0	0	
0	0	0	0	0	1	979	615	3	0	0	
1	0	0	0	0	0	1021	608	3	0	0	
2	0	0	0	0	0	526	615	3	0	0	
3	0	0	0	0	0	225	608	3	0	0	
4	0	0	0	0	3	335	615	3	0	0	
5	0	0	0	0	0	428	608	3	0	0	
6	0	0	0	0	0	449	615	3	0	0	
7	0	0	0	0	0	462	608	3	0	0	
8	0	0	0	0	3	466	614	3	0	0	
9	0	0	0	0	0	476	609	3	0	0	
10	0	0	0	0	0	478	617	3	0	0	
11	0	0	0	0	0	489	608	3	0	0	
12	0	0	0	0	3	497	616	3	0	0	
13	0	0	0	0	0	504	608	3	0	0	
14	0	0	0	0	0	504	616	3	0	0	
15	0	0	0	0	0	512	609	3	0	0	
0	0	0	0	0	3	513	616	3	0	0	
1	0	0	0	0	0	524	608	3	0	0	
2	0	0	0	0	0	536	615	3	0	0	
3	0	0	0	0	0	557	607	3	0	0	
4	0	0	0	0	3	569	615	3	0	0	
5	0	0	0	0	0	584	608	3	0	0	
6	0	0	0	0	0	583	614	3	0	0	
7	0	0	0	0	0	582	608	3	0	0	
8	0	0	0	0	3	572	615	3	0	0	
9	0	0	0	0	0	559	608	3	0	0	
10	0	0	0	0	0	527	615	3	0	0	
11	0	0	0	0	0	491	608	3	0	0	
12	0	0	0	0	3	455	616	3	0	0	
13	0	0	0	0	0	433	610	3	0	0	
14	0	0	0	0	0	419	616	3	0	0	
15	0	0	0	0	0	417	609	3	0	0	
0	0	0	0	0	3	416	616	3	0	0	
1	0	0	0	0	0	427	609	3	0	0	
2	0	0	0	0	0	432	616	3	0	0	
3	0	0	0	0	0	443	609	3	0	0	
4	0	0	0	0	3	451	615	3	0	0	
5	0	0	0	0	0	461	609	3	0	0	
6	0	0	0	0	0	470	616	3	0	0	
7	0	0	0	0	0	478	611	3	0	0	
8	0	0	0	0	3	484	617	3	0	0	
9	0	0	0	0	1	491	611	3	0	0	
10	0	0	0	0	0	492	619	3	0	0	
11	0	0	0	0	0	495	611	3	0	0	
12	0	0	0	0	0	492	619	3	0	0	
13	0	0	0	0	0	495	612	3	0	0	
14	0	0	0	0	0	491	619	3	0	0	
15	0	0	0	0	0	494	612	3	0	0	
0	0	0	0	0	3	494	620	3	0	0	
1	0	0	0	0	0	498	613	3	0	0	
2	0	0	0	0	0	500	619	3	0	0	
3	0	0	0	0	0	505	612	3	0	0	
4	0	0	0	0	3	507	620	3	0	0	
5	0	0	0	0	0	511	612	3	0	0	
6	0	0	0	0	0	508	620	3	0	0	
7	0	0	0	0	0	521	614	3	0	0	
8	0	0	0	0	3	520	621	3	0	0	
9	0	0	0	0	0	525	614	3	0	0	
10	0	0	0	0	0	524	621	3	0	0	
11	0	0	0	0	0	524	615	3	0	0	
12	0	0	0	0	3	521	622	3	0	0	
13	0	0	0	0	0	517	615	3	0	0	
14	0	0	0	0	0	512	622	3	0	0	
15	0	0	0	0	0	514	615	3	0	0	
0	0	0	0	0	0	512	622	3	0	0	
1	0	0	0	0	0	516	616	3	0	0	
2	0	0	0	0	0	513	623	3	0	0	
3	0	0	0	0	0	514	615	3	0	0	
4	0	0	0	0	3	525	622	3	0	0	
5	0	0	0	0	0	534	615	3	0	0	
6	0	0	0	0	0	535	622	3	0	0	
7	0	0	0	0	0	537	616	3	0	0	
8	0	0	0	0	3	534	622	3	0	0	
9	0	0	0	0	0	526	615	3	0	0	
10	0	0	0	0	0	514	622	3	0	0	
11	0	0	0	0	0	512	615	3	0	0	
12	0	0	0	0	3	502	622	3	0	0	
13	0	0	0	0	0	506	615	3	0	0	
14	0	0	0	0	0	500	622	3	0	0	
15	0	0	0	0	0	484	615	3	0	0	
0	0	0	0	0	3	596	620	3	0	0	
1	0	0	0	0	0	895	614	3	0	0	
2	0	0	0	0	0	1022	620	3	0	0	
3	0	0	0	0	0	700	613	3	0	0	
4	0	0	0	0	3	282	619	3	0	0	
5	0	0	0	0	0	297	613	3	0	0	
6	0	0	0	0	0	377	618	3	0	0	
7	0	0	0	0	0	422	613	3	0	0	
8	0	0	0	0	3	433	617	3	0	0	
9	0	0	0	0	0	441	611	3	0	0	
10	0	0	0	0	0	451	617	3	0	0	
11	0	0	0	0	0	465	611	3	0	0	
12	0	0	0	0	3	475	617	3	0	0	
13	0	0	0	0	0	492	610	3	0	0	
14	0	0	0	0	0	502	617	3	0	0	
15	0	0	0	0	0	508	610	3	0	0	
0	0	0	0	0	3	514	616	3	0	0	
1	0	0	0	0	0	523	611	3	0	0	
2	0	0	0	0	0	529	617	3	0	0	
3	0	0	0	0	0	538	611	3	0	0	
4	0	0	0	0	3	544	617	3	0	0	
5	0	0	0	0	0	554	611	3	0	0	
6	0	0	0	0	0	560	617	3	0	0	
7	0	0	0	0	0	565	612	3	0	0	
8	0	0	0	0	3	562	618	3	0	0	
9	0	0	0	0	0	559	611	3	0	0	
10	0	0	0	0	0	552	616	3	0	0	
11	0	0	0	0	0	536	610	3	0	0	
12	0	0	0	0	0	511	615	3	0	0	
13	0	0	0	0	0	479	609	3	0	0	
14	0	0	0	0	0	451	615	3	0	0	
15	0	0	0	0	0	434	609	3	0	0	
0	0	0	0	0	3	423	614	3	0	0	
1	0	0	0	0	0	425	609	3	0	0	
2	0	0	0	0	0	428	615	3	0	0	
3	0	0	0	0	0	437	610	3	0	0	
4	0	0	0	0	3	446	616	3	0	0	
5	0	0	0	0	0	457	611	3	0	0	
6	0	0	0	0	0	464	617	3	0	0	
7	0	0	0	0	1	475	612	3	0	0	
8	0	0	0	0	3	481	620	3	0	0	
9	0	0	0	0	0	487	614	3	0	0	
10	0	0	0	0	0	489	620	3	0	0	
11	0	0	0	0	0	494	615	3	0	0	
12	0	0	0	0	3	495	622	3	0	0	
13	0	0	0	0	1	495	615	3	0	0	
14	0	0	0	0	0	497	622	3	0	0	
15	0	0	0	0	0	496	618	3	0	0	
0	0	0	0	0	3	495	623	3	0	0	
1	0	0	0	0	0	496	617	3	0	0	
2	0	0	0	0	0	496	622	3	0	0	
3	0	0	0	0	1	498	617	3	0	0	
4	0	0	0	0	3	501	622	3	0	0	
5	0	0	0	0	0	505	616	3	0	0	
6	0	0	0	0	0	506	622	3	0	0	
7	0	0	0	0	0	510	616	3	0	0	
8	0	0	0	0	3	508	621	3	0	0	
9	0	0	0	0	1	511	616	3	0	0	
10	0	0	0	0	0	513	621	3	0	0	
11	0	0	0	0	0	515	615	3	0	0	
12	0	0	0	0	3	514	620	3	0	0	
13	0	0	0	0	0	513	616	3	0	0	
14	0	0	0	0	0	511	621	3	0	0	
15	0	0	0	0	0	514	616	3	0	0	
0	0	0	0	0	3	515	622	3	0	0	
1	0	0	0	0	0	514	618	3	0	0	
2	0	0	0	0	0	511	622	3	0	0	
3	0	0	0	0	0	513	617	3	0	0	
4	0	0	0	0	3	512	622	3	0	0	
5	0	0	0	0	1	513	616	3	0	0	
6	0	0	0	0	0	515	621	3	0	0	
7	0	0	0	0	0	518	617	3	0	0	
8	0	0	0	0	1	515	622	3	0	0	
9	0	0	0	0	0	517	617	3	0	0	
10	0	0	0	0	0	515	622	3	0	0	
11	0	0	0	0	1	516	615	3	0	0	
12	0	0	0	0	3	515	622	3	0	0	
13	0	0	0	0	0	517	616	3	0	0	
14	0	0	0	0	0	515	621	3	0	0	
15	0	0	0	0	0	518	617	3	0	0	
0	0	0	0	0	3	529	621	3	0	0	
1	0	0	0	0	0	528	616	3	0	0	
2	0	0	0	0	0	534	620	3	0	0	
3	0	0	0	0	0	531	617	3	0	0	
4	0	0	0	0	3	526	621	3	0	0	
5	0	0	0	0	0	519	617	3	0	0	
6	0	0	0	0	0	512	621	3	0	0	
7	0	0	0	0	1	501	617	3	0	0	
8	0	0	0	0	3	499	623	3	0	0	
9	0	0	0	0	0	502	619	3	0	0	
10	0	0	0	0	0	474	624	3	0	0	
11	0	0	0	0	0	510	622	3	0	0	
12	0	0	0	0	3	735	626	3	0	0	
13	0	0	0	0	1	1022	622	3	0	0	
14	0	0	0	0	0	912	626	3	0	0	
15	0	0	0	0	0	431	624	3	0	0	
0	0	0	0	0	3	250	626	3	0	0	
1	0	0	0	0	0	338	623	3	0	0	
2	0	0	0	0	0	406	627	3	0	0	
3	0	0	0	0	1	424	623	3	0	0	
4	0	0	0	0	3	433	627	3	0	0	
5	0	0	0	0	0	443	623	3	0	0	
6	0	0	0	0	0	455	628	3	0	0	
7	0	0	0	0	0	467	624	3	0	0	
8	0	0	0	0	3	481	628	3	0	0	
9	0	0	0	0	1	494	624	3	0	0	
10	0	0	0	0	0	499	628	3	0	0	
11	0	0	0	0	0	504	625	3	0	0	
12	0	0	0	0	3	512	628	3	0	0	
13	0	0	0	0	0	520	626	3	0	0	
14	0	0	0	0	0	529	630	3	0	0	
15	0	0	0	0	0	542	628	3	0	0	
0	0	0	0	0	3	554	631	3	0	0	
1	0	0	0	0	0	563	626	3	0	0	
2	0	0	0	0	0	572	630	3	0	0	
3	0	0	0	0	0	572	628	3	0	0	
4	0	0	0	0	1	569	632	3	0	0	
5	0	0	0	0	1	561	627	3	0	0	
6	0	0	0	0	0	553	632	3	0	0	
7	0	0	0	0	0	534	628	3	0	0	
8	0	0	0	0	3	504	632	3	0	0	
9	0	0	0	0	0	475	627	3	0	0	
10	0	0	0	0	0	448	631	3	0	0	
11	0	0	0	0	1	429	627	3	0	0	
12	0	0	0	0	3	422	631	3	0	0	
13	0	0	0	0	0	425	627	3	0	0	
14	0	0	0	0	0	433	631	3	0	0	
15	0	0	0	0	0	443	627	3	0	0	
0	0	0	0	0	3	454	630	3	0	0	
1	0	0	0	0	1	463	626	3	0	0	
2	0	0	0	0	0	476	629	3	0	0	
3	0	0	0	0	0	484	627	3	0	0	
4	0	0	0	0	3	488	630	3	0	0	
5	0	0	0	0	0	495	627	3	0	0	
6	0	0	0	0	0	498	631	3	0	0	
7	0	0	0	0	1	498	627	3	0	0	
8	0	0	0	0	3	500	631	3	0	0	
9	0	0	0	0	0	501	628	3	0	0	
10	0	0	0	0	0	504	631	3	0	0	
11	0	0	0	0	0	503	628	3	0	0	
12	0	0	0	0	3	507	632	3	0	0	
13	0	0	0	0	1	508	628	3	0	0	
14	0	0	0	0	0	514	631	3	0	0	
15	0	0	0	0	0	511	627	3	0	0	
0	0	0	0	0	3	512	630	3	0	0	
1	0	0	0	0	1	513	628	3	0	0	
2	0	0	0	0	0	514	631	3	0	0	
3	0	0	0	0	0	512	628	3	0	0	
4	0	0	0	0	3	514	632	3	0	0	
5	0	0	0	0	0	513	630	3	0	0	
6	0	0	0	0	0	517	631	3	0	0	
7	0	0	0	0	0	520	629	3	0	0	
8	0	0	0	0	3	524	631	3	0	0	
9	0	0	0	0	1	525	629	3	0	0	
10	0	0	0	0	0	525	632	3	0	0	
11	0	0	0	0	0	524	630	3	0	0	
12	0	0	0	0	3	524	632	3	0	0	
13	0	0	0	0	0	519	628	3	0	0	
14	0	0	0	0	0	521	631	3	0	0	
15	0	0	0	0	1	524	628	3	0	0	
0	0	0	0	0	1	526	631	3	0	0	
1	0	0	0	0	1	523	629	3	0	0	
2	0	0	0	0	0	525	630	3	0	0	
3	0	0	0	0	0	526	629	3	0	0	
4	0	0	0	0	3	527	632	3	0	0	
5	0	0	0	0	1	519	628	3	0	0	
6	0	0	0	0	0	520	631	3	0	0	
7	0	0	0	0	0	520	630	3	0	0	
8	0	0	0	0	3	524	632	3	0	0	
9	0	0	0	0	0	520	630	3	0	0	
10	0	0	0	0	0	523	631	3	0	0	
11	0	0	0	0	0	521	629	3	0	0	
12	0	0	0	0	3	524	631	3	0	0	
13	0	0	0	0	0	531	629	3	0	0	
14	0	0	0	0	0	536	631	3	0	0	
15	0	0	0	0	0	537	628	3	0	0	
0	0	0	0	0	3	539	631	3	0	0	
1	0	0	0	0	1	526	627	3	0	0	
2	0	0	0	0	0	517	631	3	0	0	
3	0	0	0	0	0	508	629	3	0	0	
4	0	0	0	0	3	504	629	3	0	0	
5	0	0	0	0	0	503	627	3	0	0	
6	0	0	0	0	0	500	628	3	0	0	
7	0	0	0	0	1	481	625	3	0	0	
8	0	0	0	0	3	604	626	3	0	0	
9	0	0	0	0	0	912	622	3	0	0	
10	0	0	0	0	0	1022	622	3	0	0	
11	0	0	0	0	0	723	619	3	0	0	
12	0	0	0	0	3	307	620	3	0	0	
13	0	0	0	0	1	300	616	3	0	0	
14	0	0	0	0	0	377	617	3	0	0	
15	0	0	0	0	0	433	615	3	0	0	
0	0	0	0	0	3	452	614	2	0	0	
1	0	0	0	0	0	455	613	3	0	0	
2	0	0	0	0	0	463	614	3	0	0	
3	0	0	0	0	0	464	614	3	0	0	
4	0	0	0	0	3	481	616	3	0	0	
5	0	0	0	0	0	490	616	3	0	0	
6	0	0	0	0	0	499	619	3	0	0	
7	0	0	0	0	0	501	620	3	0	0	
8	0	0	0	0	3	507	623	3	0	0	
9	0	0	0	0	1	507	623	3	0	0	
10	0	0	0	0	0	515	623	3	0	0	
11	0	0	0	0	0	526	624	3	0	0	
12	0	0	0	0	1	541	624	3	0	0	
13	0	0	0	0	0	550	626	3	0	0	
14	0	0	0	0	0	564	627	3	0	0	
15	0	0	0	0	1	565	627	3	0	0	
0	0	0	0	0	3	566	631	3	0	0	
1	0	0	0	0	0	556	633	3	0	0	
2	0	0	0	0	0	550	638	3	0	0	
3	0	0	0	0	0	535	641	3	0	0	
4	0	0	0	0	3	510	649	3	0	0	
5	0	0	0	0	0	481	652	3	0	0	
6	0	0	0	0	0	451	657	3	0	0	
7	0	0	0	0	0	427	658	3	0	0	
8	0	0	0	0	3	418	661	3	0	0	
9	0	0	0	0	0	413	662	3	0	0	
10	0	0	0	0	0	417	661	3	0	0	
11	0	0	0	0	1	424	658	3	0	0	
12	0	0	0	0	3	437	658	3	0	0	
13	0	0	0	0	0	447	655	3	0	0	
14	0	0	0	0	0	460	653	3	0	0	
15	0	0	0	0	0	468	652	3	0	0	
0	0	0	0	0	3	482	652	3	0	0	
1	0	0	0	0	1	479	649	3	0	0	
2	0	0	0	0	0	486	651	3	0	0	
3	0	0	0	0	0	486	651	3	0	0	
4	0	0	0	0	3	489	651	3	0	0	
5	0	0	0	0	0	498	649	3	0	0	
6	0	0	0	0	0	507	649	3	0	0	
7	0	0	0	0	1	508	649	3	0	0	
8	0	0	0	0	3	512	650	3	0	0	
9	0	0	0	0	0	513	649	3	0	0	
10	0	0	0	0	0	515	648	3	0	0	
11	0	0	0	0	0	514	648	3	0	0	
12	0	0	0	0	3	514	648	3	0	0	
13	0	0	0	0	1	512	648	3	0	0	
14	0	0	0	0	0	516	647	3	0	0	
15	0	0	0	0	0	508	648	3	0	0	
0	0	0	0	0	3	509	648	3	0	0	
1	0	0	0	0	0	502	647	3	0	0	
2	0	0	0	0	0	505	649	3	0	0	
3	0	0	0	0	1	504	648	3	0	0	
4	0	0	0	0	3	508	648	3	0	0	
5	0	0	0	0	0	512	649	3	0	0	
6	0	0	0	0	0	517	649	3	0	0	
7	0	0	0	0	0	515	650	3	0	0	
8	0	0	0	0	1	518	649	3	0	0	
9	0	0	0	0	1	516	649	3	0	0	
10	0	0	0	0	0	519	649	3	0	0	
11	0	0	0	0	0	517	650	3	0	0	
12	0	0	0	0	3	523	649	3	0	0	
13	0	0	0	0	0	523	650	3	0	0	
14	0	0	0	0	0	527	651	3	0	0	
15	0	0	0	0	0	527	650	3	0	0	
0	0	0	0	0	3	533	652	3	0	0	
1	0	0	0	0	0	530	653	3	0	0	
2	0	0	0	0	0	536	653	3	0	0	
3	0	0	0	0	0	531	655	3	0	0	
4	0	0	0	0	3	533	656	3	0	0	
5	0	0	0	0	0	529	659	3	0	0	
6	0	0	0	0	0	540	662	3	0	0	
7	0	0	0	0	0	527	668	3	0	0	
8	0	0	0	0	4	531	672	3	0	0	
9	0	0	0	0	0	525	679	3	0	0	
10	0	0	0	0	0	521	684	3	0	0	
11	0	0	0	0	1	509	690	3	0	0	
12	0	0	0	0	1	502	694	3	0	0	
13	0	0	0	0	0	492	697	3	0	0	
14	0	0	0	0	0	488	697	3	0	0	
15	0	0	0	0	0	487	699	3	0	0	
0	0	0	0	0	3	465	699	3	0	0	
1	0	0	0	0	0	531	698	3	0	0	
2	0	0	0	0	0	820	698	4	0	0	
3	0	0	0	0	0	1022	697	3	0	0	
4	0	0	0	0	3	816	696	3	0	0	
5	0	0	0	0	0	359	693	3	0	0	
6	0	0	0	0	0	254	690	3	0	0	
7	0	0	0	0	1	334	687	3	0	0	
8	0	0	0	0	3	406	682	3	0	0	
9	0	0	0	0	0	430	677	3	0	0	
10	0	0	0	0	0	448	670	3	0	0	
11	0	0	0	0	0	460	668	3	0	0	
12	0	0	0	0	3	473	664	3	0	0	
13	0	0	0	0	1	484	662	3	0	0	
14	0	0	0	0	0	500	660	3	0	0	
15	0	0	0	0	0	503	662	3	0	0	
0	0	0	0	0	3	515	659	3	0	0	
1	0	0	0	0	0	517	659	3	0	0	
2	0	0	0	0	0	528	657	3	0	0	
3	0	0	0	0	1	533	658	3	0	0	
4	0	0	0	0	3	547	656	3	0	0	
5	0	0	0	0	1	558	656	3	0	0	
6	0	0	0	0	0	571	654	3	0	0	
7	0	0	0	0	0	577	654	3	0	0	
8	0	0	0	0	3	587	652	3	0	0	
9	0	0	0	0	1	582	651	3	0	0	
10	0	0	0	0	0	580	651	3	0	0	
11	0	0	0	0	0	564	652	3	0	0	
12	0	0	0	0	3	551	649	3	0	0	
13	0	0	0	0	0	521	651	3	0	0	
14	0	0	0	0	0	484	650	3	0	0	
15	0	0	0	0	0	444	652	3	0	0	
0	0	0	0	0	3	419	650	3	0	0	
1	0	0	0	0	0	400	650	3	0	0	
2	0	0	0	0	0	403	650	3	0	0	
3	0	0	0	0	0	404	652	3	0	0	
4	0	0	0	0	3	417	650	3	0	0	
5	0	0	0	0	1	427	651	3	0	0	
6	0	0	0	0	0	440	650	3	0	0	
7	0	0	0	0	0	447	652	3	0	0	
8	0	0	0	0	1	461	649	3	0	0	
9	0	0	0	0	0	468	651	3	0	0	
10	0	0	0	0	0	480	649	3	0	0	
11	0	0	0	0	1	483	650	3	0	0	
12	0	0	0	0	3	487	649	3	0	0	
13	0	0	0	0	0	489	650	3	0	0	
14	0	0	0	0	0	495	647	3	0	0	
15	0	0	0	0	0	492	650	3	0	0	
0	0	0	0	0	3	500	647	3	0	0	
1	0	0	0	0	1	497	648	3	0	0	
2	0	0	0	0	0	504	647	3	0	0	
3	0	0	0	0	0	499	649	3	0	0	
4	0	0	0	0	3	504	646	3	0	0	
5	0	0	0	0	0	501	647	3	0	0	
6	0	0	0	0	0	505	645	3	0	0	
7	0	0	0	0	1	503	646	3	0	0	
8	0	0	0	0	3	508	644	3	0	0	
9	0	0	0	0	0	508	644	3	0	0	
10	0	0	0	0	0	512	643	3	0	0	
11	0	0	0	0	0	510	644	3	0	0	
12	0	0	0	0	3	513	643	3	0	0	
13	0	0	0	0	1	511	646	3	0	0	
14	0	0	0	0	0	515	644	3	0	0	
15	0	0	0	0	0	512	646	3	0	0	
0	0	0	0	0	3	515	645	3	0	0	
1	0	0	0	0	0	511	646	3	0	0	
2	0	0	0	0	0	516	644	3	0	0	
3	0	0	0	0	1	513	646	3	0	0	
4	0	0	0	0	3	517	645	3	0	0	
5	0	0	0	0	0	512	647	3	0	0	
6	0	0	0	0	0	517	644	3	0	0	
7	0	0	0	0	0	513	647	3	0	0	
8	0	0	0	0	3	518	645	3	0	0	
9	0	0	0	0	1	527	646	3	0	0	
10	0	0	0	0	0	532	646	3	0	0	
11	0	0	0	0	0	530	647	3	0	0	
12	0	0	0	0	3	535	645	3	0	0	
13	0	0	0	0	1	526	647	3	0	0	
14	0	0	0	0	0	524	645	3	0	0	
15	0	0	0	0	1	509	647	3	0	0	
0	0	0	0	0	3	500	645	3	0	0	
1	0	0	0	0	0	489	647	3	0	0	
2	0	0	0	0	0	498	646	3	0	0	
3	0	0	0	0	0	487	647	3	0	0	
4	0	0	0	0	0	474	645	3	0	0	
5	0	0	0	0	1	580	646	3	0	0	
6	0	0	0	0	0	875	645	3	0	0	
7	0	0	0	0	0	1022	647	3	0	0	
8	0	0	0	0	3	721	644	3	0	0	
9	0	0	0	0	0	273	647	3	0	0	
10	0	0	0	0	0	281	645	3	0	0	
11	0	0	0	0	0	365	648	3	0	0	
12	0	0	0	0	3	415	645	3	0	0	
13	0	0	0	0	0	423	647	3	0	0	
14	0	0	0	0	0	437	643	3	0	0	
15	0	0	0	0	0	442	647	3	0	0	
0	0	0	0	0	3	459	644	3	0	0	
1	0	0	0	0	1	467	647	3	0	0	
2	0	0	0	0	0	487	645	3	0	0	
3	0	0	0	0	0	491	647	3	0	0	
4	0	0	0	0	3	503	644	3	0	0	
5	0	0	0	0	0	505	647	3	0	0	
6	0	0	0	0	0	522	644	3	0	0	
7	0	0	0	0	1	528	647	3	0	0	
8	0	0	0	0	3	543	644	3	0	0	
9	0	0	0	0	1	548	647	3	0	0	
10	0	0	0	0	0	561	643	3	0	0	
11	0	0	0	0	0	565	646	3	0	0	
12	0	0	0	0	3	576	641	3	0	0	
13	0	0	0	0	1	575	646	3	0	0	
14	0	0	0	0	0	576	644	3	0	0	
15	0	0	0	0	0	563	648	3	0	0	
0	0	0	0	0	3	551	644	3	0	0	
1	0	0	0	0	0	513	649	3	0	0	
2	0	0	0	0	0	477	646	3	0	0	
3	0	0	0	0	0	439	646	3	0	0	
4	0	0	0	0	3	423	645	3	0	0	
5	0	0	0	0	0	405	648	3	0	0	
6	0	0	0	0	0	413	644	3	0	0	
7	0	0	0	0	0	412	649	3	0	0	
8	0	0	0	0	3	427	645	3	0	0	
9	0	0	0	0	1	433	648	3	0	0	
10	0	0	0	0	0	449	646	3	0	0	
11	0	0	0	0	0	457	649	3	0	0	
12	0	0	0	0	3	473	646	3	0	0	
13	0	0	0	0	0	478	649	3	0	0	
14	0	0	0	0	0	494	647	3	0	0	
15	0	0	0	0	1	493	648	3	0	0	
0	0	0	0	0	1	504	646	3	0	0	
1	0	0	0	0	0	499	649	3	0	0	
2	0	0	0	0	0	507	645	3	0	0	
3	0	0	0	0	0	508	649	3	0	0	
4	0	0	0	0	3	517	646	3	0	0	
5	0	0	0	0	1	510	648	3	0	0	
6	0	0	0	0	0	512	646	3	0	0	
7	0	0	0	0	0	509	649	3	0	0	
8	0	0	0	0	3	515	645	3	0	0	
9	0	0	0	0	0	506	647	3	0	0	
10	0	0	0	0	0	513	646	3	0	0	
11	0	0	0	0	0	510	647	3	0	0	
12	0	0	0	0	3	519	643	3	0	0	
13	0	0	0	0	0	515	647	3	0	0	
14	0	0	0	0	0	519	641	3	0	0	
15	0	0	0	0	0	513	644	3	0	0	
0	0	0	0	0	3	519	640	3	0	0	
1	0	0	0	0	0	516	643	3	0	0	
2	0	0	0	0	0	524	639	3	0	0	
3	0	0	0	0	0	518	642	3	0	0	
4	0	0	0	0	3	526	638	3	0	0	
5	0	0	0	0	1	527	643	3	0	0	
6	0	0	0	0	0	545	641	3	0	0	
7	0	0	0	0	1	539	646	3	0	0	
8	0	0	0	0	3	551	644	3	0	0	
9	0	0	0	0	0	547	649	3	0	0	
10	0	0	0	0	0	548	646	3	0	0	
11	0	0	0	0	0	537	650	3	0	0	
12	0	0	0	0	3	529	644	3	0	0	
13	0	0	0	0	1	514	645	3	0	0	
14	0	0	0	0	0	513	640	3	0	0	
15	0	0	0	0	0	509	642	3	0	0	
0	0	0	0	0	3	515	636	3	0	0	
1	0	0	0	0	0	478	641	3	0	0	
2	0	0	0	0	0	573	639	3	0	0	
3	0	0	0	0	0	852	645	3	0	0	
4	0	0	0	0	3	1022	644	3	0	0	
5	0	0	0	0	0	790	650	3	0	0	
6	0	0	0	0	0	327	649	3	0	0	
7	0	0	0	0	0	251	656	3	0	0	
8	0	0	0	0	3	339	655	3	0	0	
9	0	0	0	0	1	392	662	3	0	0	
10	0	0	0	0	0	420	660	3	0	0	
11	0	0	0	0	0	425	667	3	0	0	
12	0	0	0	0	1	442	664	3	0	0	
13	0	0	0	0	1	449	670	3	0	0	
14	0	0	0	0	0	469	668	3	0	0	
15	0	0	0	0	1	477	673	3	0	0	
0	0	0	0	0	3	494	672	3	0	0	
1	0	0	0	0	0	495	679	3	0	0	
2	0	0	0	0	0	508	676	3	0	0	
3	0	0	0	0	0	508	683	3	0	0	
4	0	0	0	0	3	523	682	3	0	0	
5	0	0	0	0	0	528	688	3	0	0	
6	0	0	0	0	0	548	687	3	0	0	
7	0	0	0	0	0	557	693	3	0	0	
8	0	0	0	0	3	575	691	3	0	0	
9	0	0	0	0	0	570	697	3	0	0	
10	0	0	0	0	0	574	694	4	0	0	
11	0	0	0	0	0	565	699	3	0	0	
12	0	0	0	0	3	561	696	3	0	0	
13	0	0	0	0	0	537	701	3	0	0	
14	0	0	0	0	0	510	696	4	0	0	
15	0	0	0	0	0	465	700	3	0	0	
0	0	0	0	0	3	442	695	3	0	0	
1	0	0	0	0	1	418	698	3	0	0	
2	0	0	0	0	0	412	694	3	0	0	
3	0	0	0	0	0	410	696	3	0	0	
4	0	0	0	0	3	426	691	3	0	0	
5	0	0	0	0	0	430	693	3	0	0	
6	0	0	0	0	0	448	688	3	0	0	
7	0	0	0	0	0	451	693	3	0	0	
8	0	0	0	0	3	468	688	3	0	0	
9	0	0	0	0	0	476	692	3	0	0	
10	0	0	0	0	0	492	688	3	0	0	
11	0	0	0	0	0	494	693	3	0	0	
12	0	0	0	0	3	505	689	3	0	0	
13	0	0	0	0	0	507	694	3	0	0	
14	0	0	0	0	0	512	690	3	0	0	
15	0	0	0	0	0	509	695	3	0	0	
0	0	0	0	0	3	515	691	3	0	0	
1	0	0	0	0	0	512	696	3	0	0	
2	0	0	0	0	0	518	692	4	0	0	
3	0	0	0	0	1	513	696	3	0	0	
4	0	0	0	0	3	519	692	3	0	0	
5	0	0	0	0	0	510	698	3	0	0	
6	0	0	0	0	0	513	693	3	0	0	
7	0	0	0	0	0	510	698	3	0	0	
8	0	0	0	0	1	514	694	3	0	0	
9	0	0	0	0	1	509	699	3	0	0	
10	0	0	0	0	0	516	696	3	0	0	
11	0	0	0	0	0	511	702	4	0	0	
12	0	0	0	0	3	515	697	3	0	0	
13	0	0	0	0	0	509	703	3	0	0	
14	0	0	0	0	0	513	699	4	0	0	
15	0	0	0	0	0	510	704	4	0	0	
0	0	0	0	0	3	518	700	3	0	0	
1	0	0	0	0	0	512	705	3	0	0	
2	0	0	0	0	0	519	701	4	0	0	
3	0	0	0	0	0	526	706	3	0	0	
4	0	0	0	0	3	544	702	3	0	0	
5	0	0	0	0	0	539	707	4	0	0	
6	0	0	0	0	0	551	701	4	0	0	
7	0	0	0	0	0	545	706	4	0	0	
8	0	0	0	0	3	547	701	3	0	0	
9	0	0	0	0	0	535	705	3	0	0	
10	0	0	0	0	0	527	701	4	0	0	
11	0	0	0	0	0	506	706	4	0	0	
12	0	0	0	0	3	503	700	3	0	0	
13	0	0	0	0	0	498	707	4	0	0	
14	0	0	0	0	0	507	701	4	0	0	
15	0	0	0	0	0	475	707	4	0	0	
0	0	0	0	0	3	505	702	3	0	0	
1	0	0	0	0	0	711	708	4	0	0	
2	0	0	0	0	0	1022	702	4	0	0	
3	0	0	0	0	0	958	707	4	0	0	
4	0	0	0	0	3	465	702	3	0	0	
5	0	0	0	0	0	241	707	4	0	0	
6	0	0	0	0	0	343	702	4	0	0	
7	0	0	0	0	0	408	705	4	0	0	
8	0	0	0	0	3	432	700	3	0	0	
9	0	0	0	0	0	437	706	4	0	0	
10	0	0	0	0	0	456	700	4	0	0	
11	0	0	0	0	0	462	705	3	0	0	
12	0	0	0	0	3	484	699	3	0	0	
13	0	0	0	0	0	490	705	4	0	0	
14	0	0	0	0	0	508	700	4	0	0	
15	0	0	0	0	0	512	705	3	0	0	
0	0	0	0	0	3	522	699	3	0	0	
1	0	0	0	0	0	522	706	4	0	0	
2	0	0	0	0	0	537	700	4	0	0	
3	0	0	0	0	1	542	705	4	0	0	
4	0	0	0	0	0	560	700	3	0	0	
5	0	0	0	0	0	563	705	3	0	0	
6	0	0	0	0	0	578	699	4	0	0	
7	0	0	0	0	0	580	705	3	0	0	
8	0	0	0	0	3	590	700	3	0	0	
9	0	0	0	0	1	582	705	4	0	0	
10	0	0	0	0	0	579	698	4	0	0	
11	0	0	0	0	0	556	704	3	0	0	
12	0	0	0	0	3	531	698	3	0	0	
13	0	0	0	0	0	485	704	4	0	0	
14	0	0	0	0	0	456	697	4	0	0	
15	0	0	0	0	0	424	704	4	0	0	
0	0	0	0	0	3	415	697	3	0	0	
1	0	0	0	0	0	408	702	3	0	0	
2	0	0	0	0	0	423	696	4	0	0	
3	0	0	0	0	0	427	700	3	0	0	
4	0	0	0	0	3	444	696	3	0	0	
5	0	0	0	0	0	448	701	4	0	0	
6	0	0	0	0	0	465	695	4	0	0	
7	0	0	0	0	0	469	702	3	0	0	
8	0	0	0	0	1	484	696	3	0	0	
9	0	0	0	0	0	489	701	4	0	0	
10	0	0	0	0	0	502	696	4	0	0	
11	0	0	0	0	0	502	703	4	0	0	
12	0	0	0	0	3	507	696	3	0	0	
13	0	0	0	0	0	503	702	3	0	0	
14	0	0	0	0	0	511	696	4	0	0	
15	0	0	0	0	0	506	703	3	0	0	
0	0	0	0	0	3	514	696	3	0	0	
1	0	0	0	0	0	507	703	3	0	0	
2	0	0	0	0	0	512	696	4	0	0	
3	0	0	0	0	0	508	701	3	0	0	
4	0	0	0	0	3	513	694	3	0	0	
5	0	0	0	0	0	507	701	3	0	0	
6	0	0	0	0	0	514	695	4	0	0	
7	0	0	0	0	0	509	702	4	0	0	
8	0	0	0	0	3	519	695	3	0	0	
9	0	0	0	0	0	512	701	3	0	0	
10	0	0	0	0	0	521	695	4	0	0	
11	0	0	0	0	0	517	701	3	0	0	
12	0	0	0	0	3	523	695	3	0	0	
13	0	0	0	0	0	519	700	3	0	0	
14	0	0	0	0	0	525	694	3	0	0	
15	0	0	0	0	0	519	700	3	0	0	
0	0	0	0	0	3	525	694	3	0	0	
1	0	0	0	0	0	518	699	3	0	0	
2	0	0	0	0	0	523	692	3	0	0	
3	0	0	0	0	0	516	699	4	0	0	
4	0	0	0	0	3	523	692	3	0	0	
5	0	0	0	0	0	516	700	3	0	0	
6	0	0	0	0	0	531	692	4	0	0	
7	0	0	0	0	0	530	699	3	0	0	
8	0	0	0	0	3	539	694	3	0	0	
9	0	0	0	0	0	539	700	4	0	0	
10	0	0	0	0	0	543	692	3	0	0	
11	0	0	0	0	0	529	700	4	0	0	
12	0	0	0	0	3	532	693	3	0	0	
13	0	0	0	0	0	508	700	3	0	0	
14	0	0	0	0	0	504	693	3	0	0	
15	0	0	0	0	0	495	699	3	0	0	
0	0	0	0	0	3	503	692	3	0	0	
1	0	0	0	0	0	494	699	3	0	0	
2	0	0	0	0	0	476	692	4	0	0	
3	0	0	0	0	0	560	699	3	0	0	
4	0	0	0	0	1	848	690	3	0	0	
5	0	0	0	0	0	1022	697	4	0	0	
6	0	0	0	0	0	752	690	4	0	0	
7	0	0	0	0	0	298	694	3	0	0	
8	0	0	0	0	3	294	688	3	0	0	
9	0	0	0	0	0	379	694	3	0	0	
10	0	0	0	0	0	428	686	3	0	0	
11	0	0	0	0	0	435	692	3	0	0	
12	0	0	0	0	3	449	684	3	0	0	
13	0	0	0	0	0	451	690	3	0	0	
14	0	0	0	0	0	471	684	3	0	0	
15	0	0	0	0	0	481	689	3	0	0	
0	0	0	0	0	3	502	681	3	0	0	
1	0	0	0	0	0	506	688	4	0	0	
2	0	0	0	0	0	519	679	3	0	0	
3	0	0	0	0	0	519	684	3	0	0	
4	0	0	0	0	3	531	675	3	0	0	
5	0	0	0	0	0	535	680	3	0	0	
6	0	0	0	0	0	553	671	3	0	0	
7	0	0	0	0	0	558	675	3	0	0	
8	0	0	0	0	3	579	666	3	0	0	
9	0	0	0	0	0	578	671	3	0	0	
10	0	0	0	0	0	588	661	3	0	0	
11	0	0	0	0	0	581	665	3	0	0	
12	0	0	0	0	3	585	654	3	0	0	
13	0	0	0	0	0	569	659	3	0	0	
14	0	0	0	0	0	557	647	3	0	0	
15	0	0	0	0	0	521	652	3	0	0	
0	0	0	0	0	3	488	640	3	0	0	
1	0	0	0	0	0	448	645	3	0	0	
2	0	0	0	0	0	435	636	3	0	0	
3	0	0	0	0	0	416	641	3	0	0	
4	0	0	0	0	3	425	633	3	0	0	
5	0	0	0	0	0	423	639	3	0	0	
6	0	0	0	0	0	439	633	3	0	0	
7	0	0	0	0	0	440	642	3	0	0	
8	0	0	0	0	3	460	636	3	0	0	
9	0	0	0	0	0	459	646	3	0	0	
10	0	0	0	0	0	475	639	3	0	0	
11	0	0	0	0	0	476	648	3	0	0	
12	0	0	0	0	3	490	640	3	0	0	
13	0	0	0	0	0	487	648	3	0	0	
14	0	0	0	0	0	497	641	3	0	0	
15	0	0	0	0	0	494	649	3	0	0	
0	0	0	0	0	1	500	641	3	0	0	
1	0	0	0	0	0	493	649	3	0	0	
2	0	0	0	0	0	502	642	3	0	0	
3	0	0	0	0	0	497	649	3	0	0	
4	0	0	0	0	3	507	643	3	0	0	
5	0	0	0	0	0	496	650	3	0	0	
6	0	0	0	0	0	504	642	3	0	0	
7	0	0	0	0	0	501	651	3	0	0	
8	0	0	0	0	3	511	643	3	0	0	
9	0	0	0	0	0	506	651	3	0	0	
10	0	0	0	0	0	518	642	3	0	0	
11	0	0	0	0	0	514	651	3	0	0	
12	0	0	0	0	3	521	643	3	0	0	
13	0	0	0	0	0	514	650	3	0	0	
14	0	0	0	0	0	521	643	3	0	0	
15	0	0	0	0	0	510	651	3	0	0	
0	0	0	0	0	3	518	643	3	0	0	
1	0	0	0	0	0	511	651	3	0	0	
2	0	0	0	0	0	520	643	3	0	0	
3	0	0	0	0	0	509	651	3	0	0	
4	0	0	0	0	3	517	643	3	0	0	
5	0	0	0	0	0	508	651	3	0	0	
6	0	0	0	0	0	515	642	3	0	0	
7	0	0	0	0	0	510	651	3	0	0	
8	0	0	0	0	3	519	642	3	0	0	
9	0	0	0	0	0	512	652	3	0	0	
10	0	0	0	0	0	520	643	3	0	0	
11	0	0	0	0	0	514	652	3	0	0	
12	0	0	0	0	3	522	644	3	0	0	
13	0	0	0	0	0	513	652	3	0	0	
14	0	0	0	0	0	529	643	3	0	0	
15	0	0	0	0	0	525	652	3	0	0	
0	0	0	0	0	3	527	644	3	0	0	
1	0	0	0	0	0	523	652	3	0	0	
2	0	0	0	0	0	528	643	3	0	0	
3	0	0	0	0	0	515	652	3	0	0	
4	0	0	0	0	3	512	643	3	0	0	
5	0	0	0	0	0	493	650	3	0	0	
6	0	0	0	0	0	495	642	3	0	0	
7	0	0	0	0	0	487	650	3	0	0	
8	0	0	0	0	3	497	642	3	0	0	
9	0	0	0	0	0	470	648	3	0	0	
10	0	0	0	0	0	501	639	3	0	0	
11	0	0	0	0	0	708	648	3	0	0	
12	0	0	0	0	0	1022	639	3	0	0	
13	0	0	0	0	0	956	647	3	0	0	
14	0	0	0	0	0	484	638	3	0	0	
15	0	0	0	0	0	237	646	3	0	0	
0	0	0	0	0	3	330	637	3	0	0	
1	0	0	0	0	0	393	646	3	0	0	
2	0	0	0	0	0	428	638	3	0	0	
3	0	0	0	0	0	428	646	3	0	0	
4	0	0	0	0	3	444	639	3	0	0	
5	0	0	0	0	0	448	649	3	0	0	
6	0	0	0	0	0	469	640	3	0	0	
7	0	0	0	0	0	476	649	3	0	0	
8	0	0	0	0	3	492	641	3	0	0	
9	0	0	0	0	0	494	649	3	0	0	
10	0	0	0	0	0	512	641	3	0	0	
11	0	0	0	0	0	512	649	3	0	0	
12	0	0	0	0	3	526	641	3	0	0	
13	0	0	0	0	0	527	648	3	0	0	
14	0	0	0	0	0	547	640	3	0	0	
15	0	0	0	0	0	551	649	3	0	0	
0	0	0	0	0	3	569	642	3	0	0	
1	0	0	0	0	0	573	651	3	0	0	
2	0	0	0	0	0	582	643	3	0	0	
3	0	0	0	0	0	570	652	3	0	0	
4	0	0	0	0	3	568	645	3	0	0	
5	0	0	0	0	0	548	654	3	0	0	
6	0	0	0	0	0	533	646	3	0	0	
7	0	0	0	0	0	490	656	3	0	0	
8	0	0	0	0	3	460	648	3	0	0	
9	0	0	0	0	0	425	657	3	0	0	
10	0	0	0	0	0	414	650	3	0	0	
11	0	0	0	0	0	401	658	3	0	0	
12	0	0	0	0	3	413	649	3	0	0	
13	0	0	0	0	0	413	659	3	0	0	
14	0	0	0	0	0	431	651	3	0	0	
15	0	0	0	0	0	435	659	3	0	0	
0	0	0	0	0	3	455	652	3	0	0	
1	0	0	0	0	1	457	661	3	0	0	
2	0	0	0	0	0	474	652	3	0	0	
3	0	0	0	0	0	476	663	3	0	0	
4	0	0	0	0	3	489	654	3	0	0	
5	0	0	0	0	0	488	663	3	0	0	
6	0	0	0	0	0	499	654	3	0	0	
7	0	0	0	0	0	494	664	3	0	0	
8	0	0	0	0	0	505	654	3	0	0	
9	0	0	0	0	0	500	663	3	0	0	
10	0	0	0	0	0	510	654	3	0	0	
11	0	0	0	0	0	504	664	3	0	0	
12	0	0	0	0	3	512	654	3	0	0	
13	0	0	0	0	0	503	663	3	0	0	
14	0	0	0	0	0	510	655	3	0	0	
15	0	0	0	0	0	505	663	3	0	0	
0	0	0	0	0	3	511	654	3	0	0	
1	0	0	0	0	0	505	663	3	0	0	
2	0	0	0	0	0	514	655	3	0	0	
3	0	0	0	0	0	507	664	3	0	0	
4	0	0	0	0	3	514	654	3	0	0	
5	0	0	0	0	0	506	664	3	0	0	
6	0	0	0	0	0	514	656	3	0	0	
7	0	0	0	0	0	508	664	3	0	0	
8	0	0	0	0	3	516	656	3	0	0	
9	0	0	0	0	0	509	664	3	0	0	
10	0	0	0	0	0	518	655	3	0	0	
11	0	0	0	0	0	510	665	3	0	0	
12	0	0	0	0	3	518	657	3	0	0	
13	0	0	0	0	0	512	665	3	0	0	
14	0	0	0	0	0	521	656	3	0	0	
15	0	0	0	0	0	511	665	3	0	0	
0	0	0	0	0	3	518	657	3	0	0	
1	0	0	0	0	0	509	666	3	0	0	
2	0	0	0	0	0	518	656	3	0	0	
3	0	0	0	0	0	511	666	3	0	0	
4	0	0	0	0	3	517	657	3	0	0	
5	0	0	0	0	0	509	666	3	0	0	
6	0	0	0	0	0	515	657	3	0	0	
7	0	0	0	0	0	508	667	3	0	0	
8	0	0	0	0	3	517	657	3	0	0	
9	0	0	0	0	0	525	666	3	0	0	
10	0	0	0	0	0	536	657	3	0	0	
11	0	0	0	0	0	522	665	3	0	0	
12	0	0	0	0	3	532	654	3	0	0	
13	0	0	0	0	0	521	665	3	0	0	
14	0	0	0	0	0	520	655	3	0	0	
15	0	0	0	0	0	505	664	3	0	0	
0	0	0	0	0	3	503	655	3	0	0	
1	0	0	0	0	0	491	664	3	0	0	
2	0	0	0	0	0	499	655	3	0	0	
3	0	0	0	0	0	489	664	3	0	0	
4	0	0	0	0	1	476	654	3	0	0	
5	0	0	0	0	0	580	662	3	0	0	
6	0	0	0	0	0	881	653	3	0	0	
7	0	0	0	0	0	1022	661	3	0	0	
8	0	0	0	0	3	722	652	3	0	0	
9	0	0	0	0	0	277	661	3	0	0	
10	0	0	0	0	0	288	651	3	0	0	
11	0	0	0	0	0	366	660	3	0	0	
12	0	0	0	0	3	418	650	3	0	0	
13	0	0	0	0	0	423	660	3	0	0	
14	0	0	0	0	0	441	649	3	0	0	
15	0	0	0	0	0	447	659	3	0	0	
0	0	0	0	0	3	469	650	3	0	0	
1	0	0	0	0	0	471	659	3	0	0	
2	0	0	0	0	0	490	650	3	0	0	
3	0	0	0	0	0	491	659	3	0	0	
4	0	0	0	0	3	505	651	3	0	0	
5	0	0	0	0	0	504	659	3	0	0	
6	0	0	0	0	0	519	650	3	0	0	
7	0	0	0	0	0	522	660	3	0	0	
8	0	0	0	0	3	541	652	3	0	0	
9	0	0	0	0	0	547	662	3	0	0	
10	0	0	0	0	0	567	652	3	0	0	
11	0	0	0	0	0	569	664	3	0	0	
12	0	0	0	0	3	582	654	3	0	0	
13	0	0	0	0	0	575	663	3	0	0	
14	0	0	0	0	0	575	654	3	0	0	
15	0	0	0	0	0	558	663	3	0	0	
0	0	0	0	0	3	547	654	3	0	0	
1	0	0	0	0	0	506	663	3	0	0	
2	0	0	0	0	0	475	654	3	0	0	
3	0	0	0	0	0	434	662	3	0	0	
4	0	0	0	0	3	419	652	3	0	0	
5	0	0	0	0	0	402	661	3	0	0	
6	0	0	0	0	0	409	651	3	0	0	
7	0	0	0	0	0	410	660	3	0	0	
8	0	0	0	0	3	427	649	3	0	0	
9	0	0	0	0	0	430	659	3	0	0	
10	0	0	0	0	0	449	651	3	0	0	
11	0	0	0	0	0	448	659	3	0	0	
12	0	0	0	0	3	467	650	3	0	0	
13	0	0	0	0	0	469	660	3	0	0	
14	0	0	0	0	0	486	649	3	0	0	
15	0	0	0	0	0	483	659	3	0	0	
0	0	0	0	0	0	498	649	3	0	0	
1	0	0	0	0	0	492	657	3	0	0	
2	0	0	0	0	0	504	649	3	0	0	
3	0	0	0	0	0	501	659	3	0	0	
4	0	0	0	0	3	505	651	3	0	0	
5	0	0	0	0	0	500	661	3	0	0	
6	0	0	0	0	0	505	652	3	0	0	
7	0	0	0	0	0	497	661	3	0	0	
8	0	0	0	0	3	505	652	3	0	0	
9	0	0	0	0	0	500	661	3	0	0	
10	0	0	0	0	0	509	651	3	0	0	
11	0	0	0	0	0	503	660	3	0	0	
12	0	0	0	0	3	515	652	3	0	0	
13	0	0	0	0	0	509	660	3	0	0	
14	0	0	0	0	0	515	651	3	0	0	
15	0	0	0	0	0	509	661	3	0	0	
0	0	0	0	0	3	518	651	3	0	0	
1	0	0	0	0	0	508	661	3	0	0	
2	0	0	0	0	0	515	652	3	0	0	
3	0	0	0	0	0	509	662	3	0	0	
4	0	0	0	0	1	516	654	3	0	0	
5	0	0	0	0	0	511	664	3	0	0	
6	0	0	0	0	0	516	655	3	0	0	
7	0	0	0	0	0	511	664	3	0	0	
8	0	0	0	0	3	519	655	3	0	0	
9	0	0	0	0	0	510	664	3	0	0	
10	0	0	0	0	0	519	655	3	0	0	
11	0	0	0	0	0	513	665	3	0	0	
12	0	0	0	0	3	520	655	3	0	0	
13	0	0	0	0	0	512	664	3	0	0	
14	0	0	0	0	0	520	655	3	0	0	
15	0	0	0	0	0	513	664	3	0	0	
0	0	0	0	0	3	519	654	3	0	0	
1	0	0	0	0	0	514	664	3	0	0	
2	0	0	0	0	0	521	654	3	0	0	
3	0	0	0	0	0	512	662	3	0	0	
4	0	0	0	0	3	519	653	3	0	0	
5	0	0	0	0	0	512	664	3	0	0	
6	0	0	0	0	0	519	654	3	0	0	
7	0	0	0	0	0	519	664	3	0	0	
8	0	0	0	0	3	535	654	3	0	0	
9	0	0	0	0	0	526	664	3	0	0	
10	0	0	0	0	0	535	654	3	0	0	
11	0	0	0	0	0	522	664	3	0	0	
12	0	0	0	0	3	529	653	3	0	0	
13	0	0	0	0	0	511	664	3	0	0	
14	0	0	0	0	0	513	653	3	0	0	
15	0	0	0	0	0	498	662	3	0	0	
0	0	0	0	0	3	503	652	3	0	0	
1	0	0	0	0	0	496	661	3	0	0	
2	0	0	0	0	0	485	650	3	0	0	
3	0	0	0	0	0	496	661	3	0	0	
4	0	0	0	0	3	705	651	3	0	0	
5	0	0	0	0	0	1016	659	3	0	0	
6	0	0	0	0	0	979	649	3	0	0	
7	0	0	0	0	0	494	659	3	0	0	
8	0	0	0	0	3	252	650	3	0	0	
9	0	0	0	0	0	331	659	3	0	0	
10	0	0	0	0	0	411	649	3	0	0	
11	0	0	0	0	0	425	659	3	0	0	
12	0	0	0	0	3	441	650	3	0	0	
13	0	0	0	0	0	442	659	3	0	0	
14	0	0	0	0	0	460	650	3	0	0	
15	0	0	0	0	0	463	661	3	0	0	
0	0	0	0	0	1	484	651	3	0	0	
1	0	0	0	0	0	486	661	3	0	0	
2	0	0	0	0	0	500	653	3	0	0	
3	0	0	0	0	0	502	663	3	0	0	
4	0	0	0	0	3	516	654	3	0	0	
5	0	0	0	0	0	517	664	3	0	0	
6	0	0	0	0	0	536	654	3	0	0	
7	0	0	0	0	0	542	664	3	0	0	
8	0	0	0	0	3	562	654	3	0	0	
9	0	0	0	0	0	567	664	3	0	0	
10	0	0	0	0	0	582	655	3	0	0	
11	0	0	0	0	0	579	664	3	0	0	
12	0	0	0	0	3	587	654	3	0	0	
13	0	0	0	0	0	572	664	3	0	0	
14	0	0	0	0	0	566	655	3	0	0	
15	0	0	0	0	0	536	664	3	0	0	
0	0	0	0	0	3	506	655	3	0	0	
1	0	0	0	0	0	460	665	3	0	0	
2	0	0	0	0	0	434	655	3	0	0	
3	0	0	0	0	0	406	665	3	0	0	
4	0	0	0	0	3	408	655	3	0	0	
5	0	0	0	0	0	403	664	3	0	0	
6	0	0	0	0	0	419	655	3	0	0	
7	0	0	0	0	0	421	664	3	0	0	
8	0	0	0	0	3	439	654	3	0	0	
9	0	0	0	0	0	444	663	3	0	0	
10	0	0	0	0	0	460	653	3	0	0	
11	0	0	0	0	0	463	663	3	0	0	
12	0	0	0	0	3	483	653	3	0	0	
13	0	0	0	0	0	485	663	3	0	0	
14	0	0	0	0	0	498	652	3	0	0	
15	0	0	0	0	0	497	662	3	0	0	
0	0	0	0	0	3	507	652	3	0	0	
1	0	0	0	0	0	500	661	3	0	0	
2	0	0	0	0	0	507	651	3	0	0	
3	0	0	0	0	0	505	661	3	0	0	
4	0	0	0	0	3	512	651	3	0	0	
5	0	0	0	0	0	505	660	3	0	0	
6	0	0	0	0	0	511	651	3	0	0	
7	0	0	0	0	0	503	661	3	0	0	
8	0	0	0	0	3	511	651	3	0	0	
9	0	0	0	0	0	507	662	3	0	0	
10	0	0	0	0	0	515	652	3	0	0	
11	0	0	0	0	0	511	662	3	0	0	
12	0	0	0	0	0	519	653	3	0	0	
13	0	0	0	0	0	512	663	3	0	0	
14	0	0	0	0	0	521	653	3	0	0	
15	0	0	0	0	0	513	663	3	0	0	
0	0	0	0	0	3	519	653	3	0	0	
1	0	0	0	0	0	512	662	3	0	0	
2	0	0	0	0	0	519	653	3	0	0	
3	0	0	0	0	0	511	663	3	0	0	
4	0	0	0	0	3	521	654	3	0	0	
5	0	0	0	0	0	515	664	3	0	0	
6	0	0	0	0	0	523	654	3	0	0	
7	0	0	0	0	0	518	664	3	0	0	
8	0	0	0	0	3	524	655	3	0	0	
9	0	0	0	0	0	518	665	3	0	0	
10	0	0	0	0	0	526	655	3	0	0	
11	0	0	0	0	0	519	665	3	0	0	
12	0	0	0	0	3	526	656	3	0	0	
13	0	0	0	0	0	519	665	3	0	0	
14	0	0	0	0	0	524	656	3	0	0	
15	0	0	0	0	0	518	666	3	0	0	
0	0	0	0	0	3	525	656	3	0	0	
1	0	0	0	0	0	518	666	3	0	0	
2	0	0	0	0	0	524	656	3	0	0	
3	0	0	0	0	0	516	667	3	0	0	
4	0	0	0	0	3	521	657	3	0	0	
5	0	0	0	0	0	521	667	3	0	0	
6	0	0	0	0	0	539	657	3	0	0	
7	0	0	0	0	0	529	667	3	0	0	
8	0	0	0	0	3	540	656	3	0	0	
9	0	0	0	0	0	529	666	3	0	0	
10	0	0	0	0	0	533	657	3	0	0	
11	0	0	0	0	0	518	665	3	0	0	
12	0	0	0	0	3	519	655	3	0	0	
13	0	0	0	0	0	504	666	3	0	0	
14	0	0	0	0	0	510	656	3	0	0	
15	0	0	0	0	0	502	666	3	0	0	
0	0	0	0	0	3	481	656	3	0	0	
1	0	0	0	0	0	522	664	3	0	0	
2	0	0	0	0	0	773	655	3	0	0	
3	0	0	0	0	0	1022	665	3	0	0	
4	0	0	0	0	3	910	654	3	0	0	
5	0	0	0	0	0	423	664	3	0	0	
6	0	0	0	0	0	256	655	3	0	0	
7	0	0	0	0	0	335	664	3	0	0	
8	0	0	0	0	0	408	655	3	0	0	
9	0	0	0	0	0	427	665	3	0	0	
10	0	0	0	0	0	441	656	3	0	0	
11	0	0	0	0	0	447	664	3	0	0	
12	0	0	0	0	3	464	655	3	0	0	
13	0	0	0	0	0	470	664	3	0	0	
14	0	0	0	0	0	491	654	3	0	0	
15	0	0	0	0	1	494	665	3	0	0	
0	0	0	0	0	3	509	652	3	0	0	
1	0	0	0	0	0	508	664	3	0	0	
2	0	0	0	0	0	520	653	3	0	0	
3	0	0	0	0	0	520	662	3	0	0	
4	0	0	0	0	3	539	652	3	0	0	
5	0	0	0	0	0	544	661	3	0	0	
6	0	0	0	0	0	565	651	3	0	0	
7	0	0	0	0	0	572	659	3	0	0	
8	0	0	0	0	3	585	649	3	0	0	
9	0	0	0	0	0	581	659	3	0	0	
10	0	0	0	0	0	586	649	3	0	0	
11	0	0	0	0	1	571	659	3	0	0	
12	0	0	0	0	3	567	650	3	0	0	
13	0	0	0	0	0	536	660	3	0	0	
14	0	0	0	0	0	504	651	3	0	0	
15	0	0	0	0	0	461	661	3	0	0	
0	0	0	0	0	3	435	651	3	0	0	
1	0	0	0	0	1	408	662	3	0	0	
2	0	0	0	0	0	408	652	3	0	0	
3	0	0	0	0	0	403	662	3	0	0	
4	0	0	0	0	3	417	652	3	0	0	
5	0	0	0	0	0	424	662	3	0	0	
6	0	0	0	0	0	442	652	3	0	0	
7	0	0	0	0	0	444	662	3	0	0	
8	0	0	0	0	3	461	652	3	0	0	
9	0	0	0	0	0	465	662	3	0	0	
10	0	0	0	0	0	483	652	3	0	0	
11	0	0	0	0	0	483	662	3	0	0	
12	0	0	0	0	3	494	652	3	0	0	
13	0	0	0	0	1	492	661	3	0	0	
14	0	0	0	0	0	502	650	3	0	0	
15	0	0	0	0	0	499	661	3	0	0	
0	0	0	0	0	3	508	652	3	0	0	
1	0	0	0	0	0	501	662	3	0	0	
2	0	0	0	0	0	509	653	3	0	0	
3	0	0	0	0	1	502	663	3	0	0	
4	0	0	0	0	0	509	652	3	0	0	
5	0	0	0	0	0	504	662	3	0	0	
6	0	0	0	0	0	510	652	3	0	0	
7	0	0	0	0	0	504	662	3	0	0	
8	0	0	0	0	3	512	652	3	0	0	
9	0	0	0	0	1	508	663	3	0	0	
10	0	0	0	0	0	516	652	3	0	0	
11	0	0	0	0	0	508	663	3	0	0	
12	0	0	0	0	3	517	652	3	0	0	
13	0	0	0	0	0	510	662	3	0	0	
14	0	0	0	0	0	519	652	3	0	0	
15	0	0	0	0	1	514	660	3	0	0	
0	0	0	0	0	3	521	649	3	0	0	
1	0	0	0	0	0	514	659	3	0	0	
2	0	0	0	0	0	522	649	3	0	0	
3	0	0	0	0	0	515	659	3	0	0	
4	0	0	0	0	3	522	649	3	0	0	
5	0	0	0	0	1	517	659	3	0	0	
6	0	0	0	0	0	524	649	3	0	0	
7	0	0	0	0	0	518	660	3	0	0	
8	0	0	0	0	3	525	648	3	0	0	
9	0	0	0	0	0	519	658	3	0	0	
10	0	0	0	0	0	526	647	3	0	0	
11	0	0	0	0	1	518	657	3	0	0	
12	0	0	0	0	3	525	649	3	0	0	
13	0	0	0	0	0	516	658	3	0	0	
14	0	0	0	0	0	519	649	3	0	0	
15	0	0	0	0	0	515	659	3	0	0	
0	0	0	0	0	3	521	650	3	0	0	
1	0	0	0	0	1	519	660	3	0	0	
2	0	0	0	0	0	536	650	3	0	0	
3	0	0	0	0	0	527	660	3	0	0	
4	0	0	0	0	3	536	650	3	0	0	
5	0	0	0	0	0	525	659	3	0	0	
6	0	0	0	0	0	532	649	3	0	0	
7	0	0	0	0	0	516	660	3	0	0	
8	0	0	0	0	3	514	649	3	0	0	
9	0	0	0	0	0	502	659	3	0	0	
10	0	0	0	0	0	501	649	3	0	0	
11	0	0	0	0	0	498	659	3	0	0	
12	0	0	0	0	3	484	650	3	0	0	
13	0	0	0	0	1	497	660	3	0	0	
14	0	0	0	0	0	715	649	3	0	0	
15	0	0	0	0	0	1020	660	3	0	0	
0	0	0	0	0	1	973	650	3	0	0	
1	0	0	0	0	0	480	659	3	0	0	
2	0	0	0	0	0	248	650	3	0	0	
3	0	0	0	0	1	327	659	3	0	0	
4	0	0	0	0	3	403	649	3	0	0	
5	0	0	0	0	0	420	659	3	0	0	
6	0	0	0	0	0	437	649	3	0	0	
7	0	0	0	0	0	442	660	3	0	0	
8	0	0	0	0	3	458	649	3	0	0	
9	0	0	0	0	1	464	660	3	0	0	
10	0	0	0	0	0	483	649	3	0	0	
11	0	0	0	0	0	487	659	3	0	0	
12	0	0	0	0	3	500	648	3	0	0	
13	0	0	0	0	0	505	659	3	0	0	
14	0	0	0	0	0	519	649	3	0	0	
15	0	0	0	0	1	520	659	3	0	0	
0	0	0	0	0	3	537	650	3	0	0	
1	0	0	0	0	0	543	659	3	0	0	
2	0	0	0	0	0	560	650	3	0	0	
3	0	0	0	0	0	567	660	3	0	0	
4	0	0	0	0	3	583	650	3	0	0	
5	0	0	0	0	1	580	659	3	0	0	
6	0	0	0	0	0	586	650	3	0	0	
7	0	0	0	0	0	575	660	3	0	0	
8	0	0	0	0	3	567	650	3	0	0	
9	0	0	0	0	0	537	661	3	0	0	
10	0	0	0	0	0	507	651	3	0	0	
11	0	0	0	0	1	460	661	3	0	0	
12	0	0	0	0	3	433	652	3	0	0	
13	0	0	0	0	0	405	661	3	0	0	
14	0	0	0	0	0	403	652	3	0	0	
15	0	0	0	0	0	399	662	3	0	0	
0	0	0	0	0	3	413	652	3	0	0	
1	0	0	0	0	1	418	661	3	0	0	
2	0	0	0	0	0	435	652	3	0	0	
3	0	0	0	0	0	441	661	3	0	0	
4	0	0	0	0	3	457	651	3	0	0	
5	0	0	0	0	0	463	661	3	0	0	
6	0	0	0	0	0	478	651	3	0	0	
7	0	0	0	0	1	481	661	3	0	0	
8	0	0	0	0	3	493	652	3	0	0	
9	0	0	0	0	0	496	661	3	0	0	
10	0	0	0	0	0	504	650	3	0	0	
11	0	0	0	0	0	500	661	3	0	0	
12	0	0	0	0	1	510	652	3	0	0	
13	0	0	0	0	1	506	660	3	0	0	
14	0	0	0	0	0	513	651	3	0	0	
15	0	0	0	0	0	505	661	3	0	0	
0	0	0	0	0	3	510	652	3	0	0	
1	0	0	0	0	0	504	661	3	0	0	
2	0	0	0	0	0	510	651	3	0	0	
3	0	0	0	0	0	505	661	3	0	0	
4	0	0	0	0	3	515	651	3	0	0	
5	0	0	0	0	0	509	661	3	0	0	
6	0	0	0	0	0	516	651	3	0	0	
7	0	0	0	0	0	511	660	3	0	0	
8	0	0	0	0	3	518	651	3	0	0	
9	0	0	0	0	0	513	661	3	0	0	
10	0	0	0	0	0	519	651	3	0	0	
11	0	0	0	0	0	512	661	3	0	0	
12	0	0	0	0	3	519	651	3	0	0	
13	0	0	0	0	0	513	661	3	0	0	
14	0	0	0	0	0	521	652	3	0	0	
15	0	0	0	0	1	515	662	3	0	0	
0	0	0	0	0	1	520	651	3	0	0	
1	0	0	0	0	0	517	661	3	0	0	
2	0	0	0	0	0	519	651	3	0	0	
3	0	0	0	0	0	513	660	3	0	0	
4	0	0	0	0	3	521	651	3	0	0	
5	0	0	0	0	0	516	660	3	0	0	
6	0	0	0	0	0	523	652	3	0	0	
7	0	0	0	0	0	518	659	3	0	0	
8	0	0	0	0	3	520	649	3	0	0	
9	0	0	0	0	0	514	660	3	0	0	
10	0	0	0	0	0	521	650	3	0	0	
11	0	0	0	0	1	521	659	3	0	0	
12	0	0	0	0	3	537	649	3	0	0	
13	0	0	0	0	0	530	660	3	0	0	
14	0	0	0	0	0	539	650	3	0	0	
15	0	0	0	0	0	531	659	3	0	0	
0	0	0	0	0	3	535	650	3	0	0	
1	0	0	0	0	1	521	659	3	0	0	
2	0	0	0	0	0	516	650	3	0	0	
3	0	0	0	0	0	501	659	3	0	0	
4	0	0	0	0	3	502	649	3	0	0	
5	0	0	0	0	0	500	659	3	0	0	
6	0	0	0	0	0	485	649	3	0	0	
7	0	0	0	0	1	489	657	3	0	0	
8	0	0	0	0	3	688	648	3	0	0	
9	0	0	0	0	0	1003	658	3	0	0	
10	0	0	0	0	0	1001	648	3	0	0	
11	0	0	0	0	0	528	658	3	0	0	
12	0	0	0	0	3	247	649	3	0	0	
13	0	0	0	0	1	321	659	3	0	0	
14	0	0	0	0	0	398	650	3	0	0	
15	0	0	0	0	0	422	660	3	0	0	
0	0	0	0	0	3	437	651	3	0	0	
1	0	0	0	0	0	440	661	3	0	0	
2	0	0	0	0	0	457	652	3	0	0	
3	0	0	0	0	0	465	661	3	0	0	
4	0	0	0	0	3	481	652	3	0	0	
5	0	0	0	0	0	489	660	3	0	0	
6	0	0	0	0	0	500	651	3	0	0	
7	0	0	0	0	0	501	662	3	0	0	
8	0	0	0	0	3	513	651	3	0	0	
9	0	0	0	0	0	515	661	3	0	0	
10	0	0	0	0	0	532	651	3	0	0	
11	0	0	0	0	0	540	661	3	0	0	
12	0	0	0	0	1	558	651	3	0	0	
13	0	0	0	0	0	565	660	3	0	0	
14	0	0	0	0	0	581	651	3	0	0	
15	0	0	0	0	1	581	661	3	0	0	
0	0	0	0	0	3	588	651	3	0	0	
1	0	0	0	0	0	576	661	3	0	0	
2	0	0	0	0	0	569	652	3	0	0	
3	0	0	0	0	0	542	662	3	0	0	
4	0	0	0	0	3	513	652	3	0	0	
5	0	0	0	0	0	467	662	3	0	0	
6	0	0	0	0	0	442	653	3	0	0	
7	0	0	0	0	0	412	663	3	0	0	
8	0	0	0	0	3	406	652	3	0	0	
9	0	0	0	0	0	400	662	3	0	0	
10	0	0	0	0	0	414	652	3	0	0	
11	0	0	0	0	0	419	662	3	0	0	
12	0	0	0	0	3	436	651	3	0	0	
13	0	0	0	0	0	443	661	3	0	0	
14	0	0	0	0	0	459	652	3	0	0	
15	0	0	0	0	0	466	662	3	0	0	
0	0	0	0	0	3	480	653	3	0	0	
1	0	0	0	0	1	483	661	3	0	0	
2	0	0	0	0	0	495	652	3	0	0	
3	0	0	0	0	0	492	661	3	0	0	
4	0	0	0	0	3	500	651	3	0	0	
5	0	0	0	0	0	498	660	3	0	0	
6	0	0	0	0	0	506	651	3	0	0	
7	0	0	0	0	0	504	659	3	0	0	
8	0	0	0	0	3	508	651	3	0	0	
9	0	0	0	0	0	504	660	3	0	0	
10	0	0	0	0	0	510	650	3	0	0	
11	0	0	0	0	0	504	659	3	0	0	
12	0	0	0	0	3	510	651	3	0	0	
13	0	0	0	0	0	506	659	3	0	0	
14	0	0	0	0	0	513	652	3	0	0	
15	0	0	0	0	0	510	661	3	0	0	
0	0	0	0	0	3	514	652	3	0	0	
1	0	0	0	0	0	509	663	3	0	0	
2	0	0	0	0	0	515	652	3	0	0	
3	0	0	0	0	0	509	661	3	0	0	
4	0	0	0	0	3	519	653	3	0	0	
5	0	0	0	0	0	513	662	3	0	0	
6	0	0	0	0	0	518	653	3	0	0	
7	0	0	0	0	0	512	663	3	0	0	
8	0	0	0	0	1	519	654	3	0	0	
9	0	0	0	0	0	513	663	3	0	0	
10	0	0	0	0	0	518	654	3	0	0	
11	0	0	0	0	0	516	664	3	0	0	
12	0	0	0	0	3	524	654	3	0	0	
13	0	0	0	0	0	519	663	3	0	0	
14	0	0	0	0	0	524	654	3	0	0	
15	0	0	0	0	0	521	663	3	0	0	
0	0	0	0	0	3	532	655	3	0	0	
1	0	0	0	0	0	536	663	3	0	0	
2	0	0	0	0	0	539	655	3	0	0	
3	0	0	0	0	0	538	663	3	0	0	
4	0	0	0	0	3	540	653	3	0	0	
5	0	0	0	0	0	528	663	3	0	0	
6	0	0	0	0	0	526	654	3	0	0	
7	0	0	0	0	0	508	663	3	0	0	
8	0	0	0	0	3	505	655	3	0	0	
9	0	0	0	0	0	497	663	3	0	0	
10	0	0	0	0	0	505	655	3	0	0	
11	0	0	0	0	0	479	664	3	0	0	
12	0	0	0	0	3	501	657	3	0	0	
13	0	0	0	0	0	710	664	3	0	0	
14	0	0	0	0	0	1022	656	3	0	0	
15	0	0	0	0	0	975	665	3	0	0	
0	0	0	0	0	3	512	656	3	0	0	
1	0	0	0	0	0	241	664	3	0	0	
2	0	0	0	0	0	323	656	3	0	0	
3	0	0	0	0	0	388	663	3	0	0	
4	0	0	0	0	3	426	654	3	0	0	
5	0	0	0	0	0	432	663	3	0	0	
6	0	0	0	0	0	448	654	3	0	0	
7	0	0	0	0	0	454	662	3	0	0	
8	0	0	0	0	3	470	653	3	0	0	
9	0	0	0	0	0	476	663	3	0	0	
10	0	0	0	0	0	495	655	3	0	0	
11	0	0	0	0	0	500	662	3	0	0	
12	0	0	0	0	3	511	654	3	0	0	
13	0	0	0	0	0	515	663	3	0	0	
14	0	0	0	0	0	526	655	3	0	0	
15	0	0	0	0	0	529	665	3	0	0	
0	0	0	0	0	3	544	656	3	0	0	
1	0	0	0	0	0	553	664	3	0	0	
2	0	0	0	0	0	569	657	3	0	0	
3	0	0	0	0	0	575	664	3	0	0	
4	0	0	0	0	1	584	655	3	0	0	
5	0	0	0	0	0	577	663	3	0	0	
6	0	0	0	0	0	573	655	3	0	0	
7	0	0	0	0	0	558	664	3	0	0	
8	0	0	0	0	3	540	654	3	0	0	
9	0	0	0	0	0	497	663	3	0	0	
10	0	0	0	0	0	466	654	3	0	0	
11	0	0	0	0	0	432	662	3	0	0	
12	0	0	0	0	3	416	653	3	0	0	
13	0	0	0	0	0	402	662	3	0	0	
14	0	0	0	0	0	409	653	3	0	0	
15	0	0	0	0	0	414	661	3	0	0	
0	0	0	0	0	3	429	653	3	0	0	
1	0	0	0	0	0	434	662	3	0	0	
2	0	0	0	0	0	449	652	3	0	0	
3	0	0	0	0	0	456	660	3	0	0	
4	0	0	0	0	3	471	652	3	0	0	
5	0	0	0	0	0	476	660	3	0	0	
6	0	0	0	0	0	484	652	3	0	0	
7	0	0	0	0	0	487	661	3	0	0	
8	0	0	0	0	3	493	652	3	0	0	
9	0	0	0	0	0	495	660	3	0	0	
10	0	0	0	0	0	501	652	3	0	0	
11	0	0	0	0	0	499	660	3	0	0	
12	0	0	0	0	3	505	652	3	0	0	
13	0	0	0	0	0	504	660	3	0	0	
14	0	0	0	0	0	508	651	3	0	0	
15	0	0	0	0	0	504	660	3	0	0	
0	0	0	0	0	3	510	652	3	0	0	
1	0	0	0	0	0	507	660	3	0	0	
2	0	0	0	0	0	511	652	3	0	0	
3	0	0	0	0	0	508	660	3	0	0	
4	0	0	0	0	3	512	652	3	0	0	
5	0	0	0	0	0	511	660	3	0	0	
6	0	0	0	0	0	513	652	3	0	0	
7	0	0	0	0	0	509	660	3	0	0	
8	0	0	0	0	3	515	652	3	0	0	
9	0	0	0	0	0	512	660	3	0	0	
10	0	0	0	0	0	516	652	3	0	0	
11	0	0	0	0	0	514	662	3	0	0	
12	0	0	0	0	3	519	653	3	0	0	
13	0	0	0	0	0	515	661	3	0	0	
14	0	0	0	0	0	517	652	3	0	0	
15	0	0	0	0	0	514	662	3	0	0	
0	0	0	0	0	1	520	653	3	0	0	
1	0	0	0	0	0	517	661	3	0	0	
2	0	0	0	0	0	520	654	3	0	0	
3	0	0	0	0	0	526	662	3	0	0	
4	0	0	0	0	3	538	654	3	0	0	
5	0	0	0	0	0	534	661	3	0	0	
6	0	0	0	0	0	542	652	3	0	0	
7	0	0	0	0	0	534	662	3	0	0	
8	0	0	0	0	3	535	653	3	0	0	
9	0	0	0	0	0	526	661	3	0	0	
10	0	0	0	0	0	511	653	3	0	0	
11	0	0	0	0	0	499	661	3	0	0	
12	0	0	0	0	3	498	653	3	0	0	
13	0	0	0	0	0	498	660	3	0	0	
14	0	0	0	0	0	494	652	3	0	0	
15	0	0	0	0	0	476	660	3	0	0	
0	0	0	0	0	3	605	653	3	0	0	
1	0	0	0	0	0	903	662	3	0	0	
2	0	0	0	0	0	1022	653	3	0	0	
3	0	0	0	0	0	676	660	3	0	0	
4	0	0	0	0	3	269	653	3	0	0	
5	0	0	0	0	0	295	660	3	0	0	
6	0	0	0	0	0	382	652	3	0	0	
7	0	0	0	0	0	416	660	3	0	0	
8	0	0	0	0	3	432	652	3	0	0	
9	0	0	0	0	0	438	661	3	0	0	
10	0	0	0	0	0	454	652	3	0	0	
11	0	0	0	0	0	462	660	3	0	0	
12	0	0	0	0	3	479	653	3	0	0	
13	0	0	0	0	0	485	661	3	0	0	
14	0	0	0	0	0	499	653	3	0	0	
15	0	0	0	0	0	502	661	3	0	0	
0	0	0	0	0	3	516	653	3	0	0	
1	0	0	0	0	0	520	660	3	0	0	
2	0	0	0	0	0	534	654	3	0	0	
3	0	0	0	0	0	543	660	3	0	0	
4	0	0	0	0	3	558	653	3	0	0	
5	0	0	0	0	0	567	662	3	0	0	
6	0	0	0	0	0	581	653	3	0	0	
7	0	0	0	0	0	585	661	3	0	0	
8	0	0	0	0	3	587	653	3	0	0	
9	0	0	0	0	0	577	661	3	0	0	
10	0	0	0	0	0	572	654	3	0	0	
11	0	0	0	0	0	549	661	3	0	0	
12	0	0	0	0	1	519	654	3	0	0	
13	0	0	0	0	0	474	660	3	0	0	
14	0	0	0	0	0	444	654	3	0	0	
15	0	0	0	0	0	418	662	3	0	0	
0	0	0	0	0	3	408	653	3	0	0	
1	0	0	0	0	0	407	661	3	0	0	
2	0	0	0	0	0	417	654	3	0	0	
3	0	0	0	0	0	423	660	3	0	0	
4	0	0	0	0	3	438	654	3	0	0	
5	0	0	0	0	0	442	662	3	0	0	
6	0	0	0	0	0	459	654	3	0	0	
7	0	0	0	0	0	466	661	3	0	0	
8	0	0	0	0	3	479	654	3	0	0	
9	0	0	0	0	0	484	661	3	0	0	
10	0	0	0	0	0	491	655	3	0	0	
11	0	0	0	0	0	492	662	3	0	0	
12	0	0	0	0	3	498	655	3	0	0	
13	0	0	0	0	0	499	662	3	0	0	
14	0	0	0	0	0	506	654	3	0	0	
15	0	0	0	0	0	505	662	3	0	0	
0	0	0	0	0	3	511	654	3	0	0	
1	0	0	0	0	0	508	661	3	0	0	
2	0	0	0	0	0	510	653	3	0	0	
3	0	0	0	0	0	508	660	3	0	0	
4	0	0	0	0	3	512	653	3	0	0	
5	0	0	0	0	0	512	660	3	0	0	
6	0	0	0	0	0	513	654	3	0	0	
7	0	0	0	0	0	511	659	3	0	0	
8	0	0	0	0	3	517	653	3	0	0	
9	0	0	0	0	0	515	661	3	0	0	
10	0	0	0	0	0	518	654	3	0	0	
11	0	0	0	0	0	515	662	3	0	0	
12	0	0	0	0	3	519	654	3	0	0	
13	0	0	0	0	0	518	661	3	0	0	
14	0	0	0	0	0	521	654	3	0	0	
15	0	0	0	0	0	518	661	3	0	0	
0	0	0	0	0	3	521	654	3	0	0	
1	0	0	0	0	1	518	660	3	0	0	
2	0	0	0	0	0	519	652	3	0	0	
3	0	0	0	0	0	518	659	3	0	0	
4	0	0	0	0	3	520	653	3	0	0	
5	0	0	0	0	0	518	659	3	0	0	
6	0	0	0	0	0	524	653	3	0	0	
7	0	0	0	0	1	532	660	3	0	0	
8	0	0	0	0	0	539	653	3	0	0	
9	0	0	0	0	0	536	660	3	0	0	
10	0	0	0	0	0	543	654	3	0	0	
11	0	0	0	0	0	535	659	3	0	0	
12	0	0	0	0	3	531	653	3	0	0	
13	0	0	0	0	1	520	659	3	0	0	
14	0	0	0	0	0	504	652	3	0	0	
15	0	0	0	0	0	496	659	3	0	0	
0	0	0	0	0	3	500	652	3	0	0	
1	0	0	0	0	0	500	659	3	0	0	
2	0	0	0	0	0	482	652	3	0	0	
3	0	0	0	0	0	493	659	3	0	0	
4	0	0	0	0	3	690	652	3	0	0	
5	0	0	0	0	0	1010	658	3	0	0	
6	0	0	0	0	0	987	651	3	0	0	
7	0	0	0	0	0	504	657	3	0	0	
8	0	0	0	0	3	248	651	3	0	0	
9	0	0	0	0	0	327	657	3	0	0	
10	0	0	0	0	0	403	650	3	0	0	
11	0	0	0	0	0	420	658	3	0	0	
12	0	0	0	0	1	433	650	3	0	0	
13	0	0	0	0	0	443	657	3	0	0	
14	0	0	0	0	0	455	650	3	0	0	
15	0	0	0	0	1	467	656	3	0	0	
0	0	0	0	0	3	484	649	3	0	0	
1	0	0	0	0	0	493	656	3	0	0	
2	0	0	0	0	0	502	650	3	0	0	
3	0	0	0	0	0	506	655	3	0	0	
4	0	0	0	0	3	517	649	3	0	0	
5	0	0	0	0	0	524	656	3	0	0	
6	0	0	0	0	0	537	649	3	0	0	
7	0	0	0	0	0	548	656	3	0	0	
8	0	0	0	0	3	560	650	3	0	0	
9	0	0	0	0	0	570	655	3	0	0	
10	0	0	0	0	0	581	649	3	0	0	
11	0	0	0	0	0	581	655	3	0	0	
12	0	0	0	0	3	582	648	3	0	0	
13	0	0	0	0	0	572	656	3	0	0	
14	0	0	0	0	0	563	649	3	0	0	
15	0	0	0	0	0	540	655	3	0	0	
0	0	0	0	0	3	508	649	3	0	0	
1	0	0	0	0	0	466	655	3	0	0	
2	0	0	0	0	0	440	649	3	0	0	
3	0	0	0	0	0	417	656	3	0	0	
4	0	0	0	0	3	409	649	3	0	0	
5	0	0	0	0	0	409	655	3	0	0	
6	0	0	0	0	0	417	649	3	0	0	
7	0	0	0	0	0	428	655	3	0	0	
8	0	0	0	0	3	441	650	3	0	0	
9	0	0	0	0	0	448	656	3	0	0	
10	0	0	0	0	0	459	650	3	0	0	
11	0	0	0	0	0	467	657	3	0	0	
12	0	0	0	0	3	478	649	3	0	0	
13	0	0	0	0	0	483	656	3	0	0	
14	0	0	0	0	0	490	651	3	0	0	
15	0	0	0	0	0	491	656	3	0	0	
0	0	0	0	0	3	497	651	3	0	0	
1	0	0	0	0	0	498	656	3	0	0	
2	0	0	0	0	0	500	650	3	0	0	
3	0	0	0	0	0	501	657	3	0	0	
4	0	0	0	0	3	504	651	3	0	0	
5	0	0	0	0	0	505	656	3	0	0	
6	0	0	0	0	0	506	651	3	0	0	
7	0	0	0	0	0	504	656	3	0	0	
8	0	0	0	0	1	506	651	3	0	0	
9	0	0	0	0	1	508	657	3	0	0	
10	0	0	0	0	0	511	650	3	0	0	
11	0	0	0	0	0	512	656	3	0	0	
12	0	0	0	0	3	514	652	3	0	0	
13	0	0	0	0	0	512	657	3	0	0	
14	0	0	0	0	0	513	652	3	0	0	
15	0	0	0	0	0	513	658	3	0	0	
0	0	0	0	0	3	513	651	3	0	0	
1	0	0	0	0	0	513	656	3	0	0	
2	0	0	0	0	0	518	650	3	0	0	
3	0	0	0	0	0	516	655	3	0	0	
4	0	0	0	0	3	521	650	3	0	0	
5	0	0	0	0	0	518	656	3	0	0	
6	0	0	0	0	0	519	650	3	0	0	
7	0	0	0	0	0	518	655	3	0	0	
8	0	0	0	0	3	521	651	3	0	0	
9	0	0	0	0	0	520	656	3	0	0	
10	0	0	0	0	0	526	651	3	0	0	
11	0	0	0	0	0	528	657	3	0	0	
12	0	0	0	0	3	537	651	3	0	0	
13	0	0	0	0	0	536	657	3	0	0	
14	0	0	0	0	0	541	652	3	0	0	
15	0	0	0	0	0	539	657	3	0	0	
0	0	0	0	0	3	534	652	3	0	0	
1	0	0	0	0	1	527	656	3	0	0	
2	0	0	0	0	0	509	651	3	0	0	
3	0	0	0	0	0	499	656	3	0	0	
4	0	0	0	0	3	497	651	3	0	0	
5	0	0	0	0	0	497	655	3	0	0	
6	0	0	0	0	0	491	651	3	0	0	
7	0	0	0	0	0	476	655	3	0	0	
8	0	0	0	0	3	598	650	3	0	0	
9	0	0	0	0	0	910	656	3	0	0	
10	0	0	0	0	0	1022	649	3	0	0	
11	0	0	0	0	0	708	655	3	0	0	
12	0	0	0	0	3	286	650	3	0	0	
13	0	0	0	0	1	287	655	3	0	0	
14	0	0	0	0	0	362	650	3	0	0	
15	0	0	0	0	0	413	656	3	0	0	
0	0	0	0	0	3	432	652	3	0	0	
1	0	0	0	0	0	440	656	3	0	0	
2	0	0	0	0	0	450	651	3	0	0	
3	0	0	0	0	1	459	656	3	0	0	
4	0	0	0	0	1	470	651	3	0	0	
5	0	0	0	0	0	484	656	3	0	0	
6	0	0	0	0	0	497	652	3	0	0	
7	0	0	0	0	0	505	657	3	0	0	
8	0	0	0	0	3	513	652	3	0	0	
9	0	0	0	0	0	519	657	3	0	0	
10	0	0	0	0	0	526	652	3	0	0	
11	0	0	0	0	0	535	657	3	0	0	
12	0	0	0	0	3	547	652	3	0	0	
13	0	0	0	0	0	562	657	3	0	0	
14	0	0	0	0	0	575	651	3	0	0	
15	0	0	0	0	0	580	656	3	0	0	
0	0	0	0	0	3	580	650	3	0	0	
1	0	0	0	0	0	573	655	3	0	0	
2	0	0	0	0	0	566	649	3	0	0	
3	0	0	0	0	0	548	654	3	0	0	
4	0	0	0	0	3	521	648	3	0	0	
5	0	0	0	0	0	486	654	3	0	0	
6	0	0	0	0	0	458	648	3	0	0	
7	0	0	0	0	0	436	653	3	0	0	
8	0	0	0	0	3	423	648	3	0	0	
9	0	0	0	0	1	419	653	3	0	0	
10	0	0	0	0	0	423	648	3	0	0	
11	0	0	0	0	1	432	654	3	0	0	
12	0	0	0	0	3	444	648	3	0	0	
13	0	0	0	0	0	452	653	3	0	0	
14	0	0	0	0	0	463	648	3	0	0	
15	0	0	0	0	0	470	652	3	0	0	
0	0	0	0	0	3	481	648	3	0	0	
1	0	0	0	0	0	488	652	3	0	0	
2	0	0	0	0	0	491	648	3	0	0	
3	0	0	0	0	0	492	653	3	0	0	
4	0	0	0	0	3	496	647	3	0	0	
5	0	0	0	0	0	497	653	3	0	0	
6	0	0	0	0	0	502	648	3	0	0	
7	0	0	0	0	0	504	654	3	0	0	
8	0	0	0	0	3	505	649	3	0	0	
9	0	0	0	0	0	506	653	3	0	0	
10	0	0	0	0	0	507	648	3	0	0	
11	0	0	0	0	0	504	653	3	0	0	
12	0	0	0	0	3	505	647	3	0	0	
13	0	0	0	0	1	507	653	3	0	0	
14	0	0	0	0	0	509	648	3	0	0	
15	0	0	0	0	0	509	654	3	0	0	
0	0	0	0	0	1	513	649	3	0	0	
1	0	0	0	0	0	513	653	3	0	0	
2	0	0	0	0	0	512	648	3	0	0	
3	0	0	0	0	0	511	654	3	0	0	
4	0	0	0	0	3	513	648	3	0	0	
5	0	0	0	0	0	513	654	3	0	0	
6	0	0	0	0	0	515	649	3	0	0	
7	0	0	0	0	0	515	654	3	0	0	
8	0	0	0	0	3	515	649	3	0	0	
9	0	0	0	0	0	515	653	3	0	0	
10	0	0	0	0	0	515	649	3	0	0	
11	0	0	0	0	0	515	653	3	0	0	
12	0	0	0	0	3	517	649	3	0	0	
13	0	0	0	0	0	516	652	3	0	0	
14	0	0	0	0	0	518	648	3	0	0	
15	0	0	0	0	1	523	653	3	0	0	
0	0	0	0	0	3	534	649	3	0	0	
1	0	0	0	0	0	534	652	3	0	0	
2	0	0	0	0	0	536	649	3	0	0	
3	0	0	0	0	0	536	653	3	0	0	
4	0	0	0	0	3	533	650	3	0	0	
5	0	0	0	0	1	527	653	3	0	0	
6	0	0	0	0	0	518	649	3	0	0	
7	0	0	0	0	0	502	653	3	0	0	
8	0	0	0	0	3	495	650	3	0	0	
9	0	0	0	0	0	493	654	3	0	0	
10	0	0	0	0	0	496	649	3	0	0	
11	0	0	0	0	1	468	653	3	0	0	
12	0	0	0	0	3	523	649	3	0	0	
13	0	0	0	0	0	774	653	3	0	0	
14	0	0	0	0	0	1022	649	3	0	0	
15	0	0	0	0	0	896	652	3	0	0	
0	0	0	0	0	3	391	649	3	0	0	
1	0	0	0	0	0	252	653	3	0	0	
2	0	0	0	0	0	341	649	3	0	0	
3	0	0	0	0	0	406	653	3	0	0	
4	0	0	0	0	3	423	649	3	0	0	
5	0	0	0	0	0	434	653	3	0	0	
6	0	0	0	0	0	444	648	3	0	0	
7	0	0	0	0	0	456	654	3	0	0	
8	0	0	0	0	3	467	649	3	0	0	
9	0	0	0	0	0	480	653	3	0	0	
10	0	0	0	0	0	492	649	3	0	0	
11	0	0	0	0	0	501	652	3	0	0	
12	0	0	0	0	1	509	649	3	0	0	
13	0	0	0	0	0	516	654	3	0	0	
14	0	0	0	0	0	526	650	3	0	0	
15	0	0	0	0	0	537	653	3	0	0	
0	0	0	0	0	3	551	650	3	0	0	
1	0	0	0	0	0	562	654	3	0	0	
2	0	0	0	0	0	575	649	3	0	0	
3	0	0	0	0	0	585	653	3	0	0	
4	0	0	0	0	3	586	649	3	0	0	
5	0	0	0	0	0	582	652	3	0	0	
6	0	0	0	0	0	574	649	3	0	0	
7	0	0	0	0	0	560	653	3	0	0	
8	0	0	0	0	3	532	649	3	0	0	
9	0	0	0	0	0	495	652	3	0	0	
10	0	0	0	0	0	456	649	3	0	0	
11	0	0	0	0	0	427	653	3	0	0	
12	0	0	0	0	3	409	649	3	0	0	
13	0	0	0	0	0	403	652	3	0	0	
14	0	0	0	0	0	409	649	3	0	0	
15	0	0	0	0	0	420	652	3	0	0	
0	0	0	0	0	3	428	649	3	0	0	
1	0	0	0	0	0	443	652	3	0	0	
2	0	0	0	0	0	452	649	3	0	0	
3	0	0	0	0	0	465	652	3	0	0	
4	0	0	0	0	3	473	648	3	0	0	
5	0	0	0	0	0	481	652	3	0	0	
6	0	0	0	0	0	486	649	3	0	0	
7	0	0	0	0	0	493	652	3	0	0	
8	0	0	0	0	3	495	648	3	0	0	
9	0	0	0	0	0	499	652	3	0	0	
10	0	0	0	0	0	503	648	3	0	0	
11	0	0	0	0	0	505	651	3	0	0	
12	0	0	0	0	3	505	648	3	0	0	
13	0	0	0	0	0	507	651	3	0	0	
14	0	0	0	0	0	505	648	3	0	0	
15	0	0	0	0	0	504	651	3	0	0	
0	0	0	0	0	3	508	648	3	0	0	
1	0	0	0	0	0	511	652	3	0	0	
2	0	0	0	0	0	510	648	3	0	0	
3	0	0	0	0	0	512	651	3	0	0	
4	0	0	0	0	3	511	648	3	0	0	
5	0	0	0	0	0	514	652	3	0	0	
6	0	0	0	0	0	513	648	3	0	0	
7	0	0	0	0	0	515	651	3	0	0	
8	0	0	0	0	1	515	648	3	0	0	
9	0	0	0	0	1	517	651	3	0	0	
10	0	0	0	0	0	516	648	3	0	0	
11	0	0	0	0	0	519	652	3	0	0	
12	0	0	0	0	3	519	648	3	0	0	
13	0	0	0	0	0	519	652	3	0	0	
14	0	0	0	0	0	519	648	3	0	0	
15	0	0	0	0	0	519	652	3	0	0	
0	0	0	0	0	3	519	649	3	0	0	
1	0	0	0	0	0	518	652	3	0	0	
2	0	0	0	0	0	515	651	3	0	0	
3	0	0	0	0	0	519	655	3	0	0	
4	0	0	0	0	3	513	651	3	0	0	
5	0	0	0	0	0	526	655	3	0	0	
6	0	0	0	0	0	532	652	3	0	0	
7	0	0	0	0	0	535	654	3	0	0	
8	0	0	0	0	3	540	652	3	0	0	
9	0	0	0	0	0	538	655	3	0	0	
10	0	0	0	0	0	534	652	3	0	0	
11	0	0	0	0	0	529	656	3	0	0	
12	0	0	0	0	3	514	654	3	0	0	
13	0	0	0	0	0	500	656	3	0	0	
14	0	0	0	0	0	494	654	3	0	0	
15	0	0	0	0	0	498	657	3	0	0	
0	0	0	0	0	3	496	655	3	0	0	
1	0	0	0	0	0	471	656	3	0	0	
2	0	0	0	0	0	511	654	3	0	0	
3	0	0	0	0	0	749	656	3	0	0	
4	0	0	0	0	3	1022	654	3	0	0	
5	0	0	0	0	0	917	656	3	0	0	
6	0	0	0	0	0	415	654	3	0	0	
7	0	0	0	0	0	254	656	3	0	0	
8	0	0	0	0	3	339	654	3	0	0	
9	0	0	0	0	0	408	656	3	0	0	
10	0	0	0	0	0	423	654	3	0	0	
11	0	0	0	0	0	434	657	3	0	0	
12	0	0	0	0	3	444	655	3	0	0	
13	0	0	0	0	0	460	657	3	0	0	
14	0	0	0	0	0	470	655	3	0	0	
15	0	0	0	0	0	483	658	3	0	0	
0	0	0	0	0	3	491	656	3	0	0	
1	0	0	0	0	0	499	659	3	0	0	
2	0	0	0	0	0	507	654	3	0	0	
3	0	0	0	0	0	515	657	3	0	0	
4	0	0	0	0	1	521	655	3	0	0	
5	0	0	0	0	0	535	657	3	0	0	
6	0	0	0	0	0	545	654	3	0	0	
7	0	0	0	0	0	560	657	3	0	0	
8	0	0	0	0	3	570	654	3	0	0	
9	0	0	0	0	0	583	655	3	0	0	
10	0	0	0	0	0	584	653	3	0	0	
11	0	0	0	0	0	582	655	3	0	0	
12	0	0	0	0	3	574	654	3	0	0	
13	0	0	0	0	0	565	656	3	0	0	
14	0	0	0	0	0	537	655	3	0	0	
15	0	0	0	0	0	503	657	3	0	0	
0	0	0	0	0	3	463	655	3	0	0	
1	0	0	0	0	0	433	658	3	0	0	
2	0	0	0	0	0	411	656	3	0	0	
3	0	0	0	0	0	409	658	3	0	0	
4	0	0	0	0	3	409	655	3	0	0	
5	0	0	0	0	0	418	657	3	0	0	
6	0	0	0	0	0	427	655	3	0	0	
7	0	0	0	0	0	441	657	3	0	0	
8	0	0	0	0	1	448	654	3	0	0	
9	0	0	0	0	0	462	656	3	0	0	
10	0	0	0	0	0	469	654	3	0	0	
11	0	0	0	0	0	481	655	3	0	0	
12	0	0	0	0	3	487	653	3	0	0	
13	0	0	0	0	0	493	655	3	0	0	
14	0	0	0	0	0	496	653	3	0	0	
15	0	0	0	0	0	503	655	3	0	0	
0	0	0	0	0	3	499	654	3	0	0	
1	0	0	0	0	0	504	655	3	0	0	
2	0	0	0	0	0	503	654	3	0	0	
3	0	0	0	0	0	506	655	3	0	0	
4	0	0	0	0	3	503	655	3	0	0	
5	0	0	0	0	0	504	655	3	0	0	
6	0	0	0	0	0	503	654	3	0	0	
7	0	0	0	0	0	508	655	3	0	0	
8	0	0	0	0	3	508	654	3	0	0	
9	0	0	0	0	0	513	654	3	0	0	
10	0	0	0	0	0	514	652	3	0	0	
11	0	0	0	0	0	518	653	3	0	0	
12	0	0	0	0	3	514	652	3	0	0	
13	0	0	0	0	0	519	653	3	0	0	
14	0	0	0	0	0	518	653	3	0	0	
15	0	0	0	0	0	520	655	3	0	0	
0	0	0	0	0	3	519	655	3	0	0	
1	0	0	0	0	0	521	656	3	0	0	
2	0	0	0	0	0	519	656	3	0	0	
3	0	0	0	0	0	520	658	3	0	0	
4	0	0	0	0	3	520	657	3	0	0	
5	0	0	0	0	0	519	658	3	0	0	
6	0	0	0	0	0	517	658	3	0	0	
7	0	0	0	0	0	522	659	3	0	0	
8	0	0	0	0	3	530	657	3	0	0	
9	0	0	0	0	0	538	657	3	0	0	
10	0	0	0	0	0	535	657	3	0	0	
11	0	0	0	0	0	540	657	3	0	0	
12	0	0	0	0	3	538	655	3	0	0	
13	0	0	0	0	0	535	656	3	0	0	
14	0	0	0	0	0	528	656	3	0	0	
15	0	0	0	0	0	512	656	3	0	0	
0	0	0	0	0	3	497	656	3	0	0	
1	0	0	0	0	0	497	657	3	0	0	
2	0	0	0	0	0	498	657	3	0	0	
3	0	0	0	0	0	499	658	3	0	0	
4	0	0	0	0	1	470	657	3	0	0	
5	0	0	0	0	0	522	659	3	0	0	
6	0	0	0	0	0	772	659	3	0	0	
7	0	0	0	0	0	1022	659	3	0	0	
8	0	0	0	0	3	889	658	3	0	0	
9	0	0	0	0	0	407	659	3	0	0	
10	0	0	0	0	0	245	657	3	0	0	
11	0	0	0	0	0	332	658	3	0	0	
12	0	0	0	0	3	397	658	3	0	0	
13	0	0	0	0	0	423	659	3	0	0	
14	0	0	0	0	0	431	658	3	0	0	
15	0	0	0	0	0	447	659	3	0	0	
0	0	0	0	0	3	455	659	3	0	0	
1	0	0	0	0	0	473	659	3	0	0	
2	0	0	0	0	0	484	659	3	0	0	
3	0	0	0	0	0	495	660	3	0	0	
4	0	0	0	0	3	503	659	3	0	0	
5	0	0	0	0	0	514	660	3	0	0	
6	0	0	0	0	0	519	659	3	0	0	
7	0	0	0	0	0	527	660	3	0	0	
8	0	0	0	0	3	534	659	3	0	0	
9	0	0	0	0	0	547	660	3	0	0	
10	0	0	0	0	0	556	660	3	0	0	
11	0	0	0	0	0	571	662	3	0	0	
12	0	0	0	0	3	576	659	3	0	0	
13	0	0	0	0	1	582	661	3	0	0	
14	0	0	0	0	0	576	660	3	0	0	
15	0	0	0	0	0	569	660	3	0	0	
0	0	0	0	0	3	551	659	3	0	0	
1	0	0	0	0	0	532	660	3	0	0	
2	0	0	0	0	0	495	659	3	0	0	
3	0	0	0	0	0	461	659	3	0	0	
4	0	0	0	0	3	433	659	3	0	0	
5	0	0	0	0	0	421	658	3	0	0	
6	0	0	0	0	0	413	657	3	0	0	
7	0	0	0	0	0	418	658	3	0	0	
8	0	0	0	0	3	421	658	3	0	0	
9	0	0	0	0	0	436	657	3	0	0	
10	0	0	0	0	0	447	657	3	0	0	
11	0	0	0	0	0	457	657	3	0	0	
12	0	0	0	0	3	464	657	3	0	0	
13	0	0	0	0	0	476	658	3	0	0	
14	0	0	0	0	0	481	657	3	0	0	
15	0	0	0	0	0	491	658	3	0	0	
0	0	0	0	0	0	491	657	3	0	0	
1	0	0	0	0	0	495	658	3	0	0	
2	0	0	0	0	0	495	657	3	0	0	
3	0	0	0	0	0	503	657	3	0	0	
4	0	0	0	0	3	502	657	3	0	0	
5	0	0	0	0	0	508	658	3	0	0	
6	0	0	0	0	0	508	659	3	0	0	
7	0	0	0	0	0	511	659	3	0	0	
8	0	0	0	0	3	507	659	3	0	0	
9	0	0	0	0	0	506	660	3	0	0	
10	0	0	0	0	0	504	660	3	0	0	
11	0	0	0	0	0	506	660	3	0	0	
12	0	0	0	0	3	508	660	3	0	0	
13	0	0	0	0	0	514	659	3	0	0	
14	0	0	0	0	0	513	661	3	0	0	
15	0	0	0	0	0	518	660	3	0	0	
0	0	0	0	0	3	516	660	3	0	0	
1	0	0	0	0	0	521	659	3	0	0	
2	0	0	0	0	0	517	660	3	0	0	
3	0	0	0	0	0	517	659	3	0	0	
4	0	0	0	0	3	514	659	3	0	0	
5	0	0	0	0	0	519	660	3	0	0	
6	0	0	0	0	0	517	660	3	0	0	
7	0	0	0	0	1	520	659	3	0	0	
8	0	0	0	0	3	517	660	3	0	0	
9	0	0	0	0	0	522	659	3	0	0	
10	0	0	0	0	0	530	660	3	0	0	
11	0	0	0	0	0	538	659	3	0	0	
12	0	0	0	0	3	535	660	3	0	0	
13	0	0	0	0	0	544	660	3	0	0	
14	0	0	0	0	0	539	660	3	0	0	
15	0	0	0	0	0	533	660	3	0	0	
0	0	0	0	0	3	527	660	3	0	0	
1	0	0	0	0	0	508	659	3	0	0	
2	0	0	0	0	0	493	659	3	0	0	
3	0	0	0	0	0	495	659	3	0	0	
4	0	0	0	0	3	496	659	3	0	0	
5	0	0	0	0	0	499	657	3	0	0	
6	0	0	0	0	0	468	658	3	0	0	
7	0	0	0	0	0	555	658	3	0	0	
8	0	0	0	0	3	832	659	3	0	0	
9	0	0	0	0	0	1022	658	3	0	0	
10	0	0	0	0	0	809	659	3	0	0	
11	0	0	0	0	0	334	657	3	0	0	
12	0	0	0	0	1	254	658	3	0	0	
13	0	0	0	0	0	341	657	3	0	0	
14	0	0	0	0	0	400	659	3	0	0	
15	0	0	0	0	0	426	657	3	0	0	
0	0	0	0	0	3	432	659	3	0	0	
1	0	0	0	0	0	446	657	3	0	0	
2	0	0	0	0	0	451	658	3	0	0	
3	0	0	0	0	0	470	657	3	0	0	
4	0	0	0	0	3	480	657	3	0	0	
5	0	0	0	0	0	496	655	3	0	0	
6	0	0	0	0	0	501	656	3	0	0	
7	0	0	0	0	0	509	655	3	0	0	
8	0	0	0	0	3	511	655	3	0	0	
9	0	0	0	0	0	523	654	3	0	0	
10	0	0	0	0	0	531	654	3	0	0	
11	0	0	0	0	0	547	654	3	0	0	
12	0	0	0	0	3	559	655	3	0	0	
13	0	0	0	0	0	575	653	3	0	0	
14	0	0	0	0	0	579	655	3	0	0	
15	0	0	0	0	0	583	653	3	0	0	
0	0	0	0	0	3	574	655	3	0	0	
1	0	0	0	0	0	566	654	3	0	0	
2	0	0	0	0	0	545	655	3	0	0	
3	0	0	0	0	0	519	655	3	0	0	
4	0	0	0	0	3	476	656	3	0	0	
5	0	0	0	0	0	446	656	3	0	0	
6	0	0	0	0	0	417	656	3	0	0	
7	0	0	0	0	0	406	655	3	0	0	
8	0	0	0	0	3	399	656	3	0	0	
9	0	0	0	0	1	404	656	3	0	0	
10	0	0	0	0	0	410	657	3	0	0	
11	0	0	0	0	0	427	657	3	0	0	
12	0	0	0	0	3	435	658	3	0	0	
13	0	0	0	0	0	451	657	3	0	0	
14	0	0	0	0	0	455	660	3	0	0	
15	0	0	0	0	0	470	657	3	0	0	
0	0	0	0	0	3	478	659	3	0	0	
1	0	0	0	0	0	485	659	3	0	0	
2	0	0	0	0	0	485	660	3	0	0	
3	0	0	0	0	0	491	658	3	0	0	
4	0	0	0	0	3	491	660	3	0	0	
5	0	0	0	0	0	496	659	3	0	0	
6	0	0	0	0	0	495	660	3	0	0	
7	0	0	0	0	0	504	659	3	0	0	
8	0	0	0	0	1	500	661	3	0	0	
9	0	0	0	0	0	504	659	3	0	0	
10	0	0	0	0	0	498	661	3	0	0	
11	0	0	0	0	0	503	659	3	0	0	
12	0	0	0	0	3	502	661	3	0	0	
13	0	0	0	0	0	508	660	3	0	0	
14	0	0	0	0	0	505	663	3	0	0	
15	0	0	0	0	0	511	660	3	0	0	
0	0	0	0	0	3	510	662	3	0	0	
1	0	0	0	0	0	513	660	3	0	0	
2	0	0	0	0	0	509	661	3	0	0	
3	0	0	0	0	0	515	660	3	0	0	
4	0	0	0	0	3	511	662	3	0	0	
5	0	0	0	0	0	517	660	3	0	0	
6	0	0	0	0	0	515	662	3	0	0	
7	0	0	0	0	0	519	660	3	0	0	
8	0	0	0	0	3	516	662	3	0	0	
9	0	0	0	0	0	519	659	3	0	0	
10	0	0	0	0	0	516	662	3	0	0	
11	0	0	0	0	0	534	660	3	0	0	
12	0	0	0	0	3	534	662	3	0	0	
13	0	0	0	0	0	536	660	3	0	0	
14	0	0	0	0	0	539	662	3	0	0	
15	0	0	0	0	0	543	659	3	0	0	
0	0	0	0	0	3	532	662	3	0	0	
1	0	0	0	0	0	531	660	3	0	0	
2	0	0	0	0	0	508	662	3	0	0	
3	0	0	0	0	0	497	659	3	0	0	
4	0	0	0	0	3	489	662	3	0	0	
5	0	0	0	0	0	498	659	3	0	0	
6	0	0	0	0	0	494	662	3	0	0	
7	0	0	0	0	0	472	659	3	0	0	
8	0	0	0	0	3	522	662	3	0	0	
9	0	0	0	0	0	773	659	3	0	0	
10	0	0	0	0	0	1022	662	3	0	0	
11	0	0	0	0	0	890	660	3	0	0	
12	0	0	0	0	3	379	663	3	0	0	
13	0	0	0	0	0	263	660	3	0	0	
14	0	0	0	0	0	351	663	3	0	0	
15	0	0	0	0	0	416	660	3	0	0	
0	0	0	0	0	3	425	663	3	0	0	
1	0	0	0	0	0	439	660	3	0	0	
2	0	0	0	0	0	446	662	3	0	0	
3	0	0	0	0	0	463	659	3	0	0	
4	0	0	0	0	0	471	661	3	0	0	
5	0	0	0	0	0	484	659	3	0	0	
6	0	0	0	0	0	491	660	3	0	0	
7	0	0	0	0	0	504	658	3	0	0	
8	0	0	0	0	3	508	660	3	0	0	
9	0	0	0	0	0	523	658	3	0	0	
10	0	0	0	0	0	527	662	3	0	0	
11	0	0	0	0	0	539	660	3	0	0	
12	0	0	0	0	3	548	663	3	0	0	
13	0	0	0	0	0	568	660	3	0	0	
14	0	0	0	0	0	576	663	3	0	0	
15	0	0	0	0	0	589	662	3	0	0	
0	0	0	0	0	3	587	665	3	0	0	
1	0	0	0	0	0	589	662	3	0	0	
2	0	0	0	0	0	576	664	3	0	0	
3	0	0	0	0	0	564	662	3	0	0	
4	0	0	0	0	3	529	664	3	0	0	
5	0	0	0	0	0	495	660	3	0	0	
6	0	0	0	0	0	453	663	3	0	0	
7	0	0	0	0	0	428	659	3	0	0	
8	0	0	0	0	3	407	660	3	0	0	
9	0	0	0	0	0	410	658	3	0	0	
10	0	0	0	0	0	411	660	3	0	0	
11	0	0	0	0	0	429	656	3	0	0	
12	0	0	0	0	3	432	657	3	0	0	
13	0	0	0	0	0	448	655	3	0	0	
14	0	0	0	0	0	454	657	3	0	0	
15	0	0	0	0	0	469	656	3	0	0	
0	0	0	0	0	3	474	658	3	0	0	
1	0	0	0	0	0	488	655	3	0	0	
2	0	0	0	0	0	489	658	3	0	0	
3	0	0	0	0	0	500	655	3	0	0	
4	0	0	0	0	3	497	659	3	0	0	
5	0	0	0	0	0	505	656	3	0	0	
6	0	0	0	0	0	501	659	3	0	0	
7	0	0	0	0	0	508	657	3	0	0	
8	0	0	0	0	3	506	660	3	0	0	
9	0	0	0	0	0	513	657	3	0	0	
10	0	0	0	0	0	507	660	3	0	0	
11	0	0	0	0	0	510	657	3	0	0	
12	0	0	0	0	3	509	660	3	0	0	
13	0	0	0	0	0	512	657	3	0	0	
14	0	0	0	0	0	509	660	3	0	0	
15	0	0	0	0	0	515	657	3	0	0	
0	0	0	0	0	1	513	661	3	0	0	
1	0	0	0	0	0	520	658	3	0	0	
2	0	0	0	0	0	515	661	3	0	0	
3	0	0	0	0	0	520	658	3	0	0	
4	0	0	0	0	3	518	662	3	0	0	
5	0	0	0	0	0	522	656	3	0	0	
6	0	0	0	0	0	518	660	3	0	0	
7	0	0	0	0	0	524	657	3	0	0	
8	0	0	0	0	3	519	659	3	0	0	
9	0	0	0	0	0	524	657	3	0	0	
10	0	0	0	0	0	519	660	3	0	0	
11	0	0	0	0	0	524	657	3	0	0	
12	0	0	0	0	3	519	661	3	0	0	
13	0	0	0	0	0	536	659	3	0	0	
14	0	0	0	0	0	534	662	3	0	0	
15	0	0	0	0	0	542	659	3	0	0	
0	0	0	0	0	3	543	662	3	0	0	
1	0	0	0	0	0	546	659	3	0	0	
2	0	0	0	0	0	534	662	3	0	0	
3	0	0	0	0	0	533	658	3	0	0	
4	0	0	0	0	1	516	662	3	0	0	
5	0	0	0	0	0	508	658	3	0	0	
6	0	0	0	0	0	500	662	3	0	0	
7	0	0	0	0	0	506	657	3	0	0	
8	0	0	0	0	3	502	659	3	0	0	
9	0	0	0	0	0	480	656	3	0	0	
10	0	0	0	0	0	527	659	3	0	0	
11	0	0	0	0	0	790	656	3	0	0	
12	0	0	0	0	3	1022	660	3	0	0	
13	0	0	0	0	0	898	656	3	0	0	
14	0	0	0	0	0	403	660	3	0	0	
15	0	0	0	0	0	262	657	3	0	0	
0	0	0	0	0	3	334	660	3	0	0	
1	0	0	0	0	0	409	657	3	0	0	
2	0	0	0	0	0	428	661	3	0	0	
3	0	0	0	0	0	443	657	3	0	0	
4	0	0	0	0	3	448	659	3	0	0	
5	0	0	0	0	0	465	657	3	0	0	
6	0	0	0	0	0	469	661	3	0	0	
7	0	0	0	0	0	487	654	3	0	0	
8	0	0	0	0	3	492	659	3	0	0	
9	0	0	0	0	0	508	653	3	0	0	
10	0	0	0	0	0	512	657	3	0	0	
11	0	0	0	0	0	524	652	3	0	0	
12	0	0	0	0	3	527	655	3	0	0	
13	0	0	0	0	0	543	651	3	0	0	
14	0	0	0	0	0	546	657	3	0	0	
15	0	0	0	0	0	563	654	3	0	0	
0	0	0	0	0	3	570	659	3	0	0	
1	0	0	0	0	0	589	656	3	0	0	
2	0	0	0	0	0	587	660	3	0	0	
3	0	0	0	0	0	588	656	3	0	0	
4	0	0	0	0	3	575	663	3	0	0	
5	0	0	0	0	0	568	657	3	0	0	
6	0	0	0	0	0	535	662	3	0	0	
7	0	0	0	0	0	503	658	3	0	0	
8	0	0	0	0	3	463	663	3	0	0	
9	0	0	0	0	0	439	658	3	0	0	
10	0	0	0	0	0	416	664	3	0	0	
11	0	0	0	0	0	419	659	3	0	0	
12	0	0	0	0	3	415	665	3	0	0	
13	0	0	0	0	0	429	661	3	0	0	
14	0	0	0	0	0	431	664	3	0	0	
15	0	0	0	0	0	448	660	3	0	0	
0	0	0	0	0	0	450	667	3	0	0	
1	0	0	0	0	0	467	660	3	0	0	
2	0	0	0	0	0	467	664	3	0	0	
3	0	0	0	0	0	484	660	3	0	0	
4	0	0	0	0	3	487	664	3	0	0	
5	0	0	0	0	0	495	658	3	0	0	
6	0	0	0	0	0	493	663	3	0	0	
7	0	0	0	0	0	502	658	3	0	0	
8	0	0	0	0	3	499	663	3	0	0	
9	0	0	0	0	0	509	659	3	0	0	
10	0	0	0	0	0	508	664	3	0	0	
11	0	0	0	0	0	516	659	3	0	0	
12	0	0	0	0	3	510	664	3	0	0	
13	0	0	0	0	0	512	659	3	0	0	
14	0	0	0	0	0	507	664	3	0	0	
15	0	0	0	0	0	510	659	3	0	0	
0	0	0	0	0	3	505	665	3	0	0	
1	0	0	0	0	0	512	660	3	0	0	
2	0	0	0	0	0	510	665	3	0	0	
3	0	0	0	0	0	520	660	3	0	0	
4	0	0	0	0	3	518	664	3	0	0	
5	0	0	0	0	0	524	659	3	0	0	
6	0	0	0	0	0	518	665	3	0	0	
7	0	0	0	0	0	524	659	3	0	0	
8	0	0	0	0	3	515	665	3	0	0	
9	0	0	0	0	0	529	660	3	0	0	
10	0	0	0	0	0	517	665	3	0	0	
11	0	0	0	0	0	519	661	3	0	0	
12	0	0	0	0	3	510	666	3	0	0	
13	0	0	0	0	0	524	662	3	0	0	
14	0	0	0	0	0	530	666	3	0	0	
15	0	0	0	0	0	540	662	3	0	0	
0	0	0	0	0	3	536	664	3	0	0	
1	0	0	0	0	0	547	662	3	0	0	
2	0	0	0	0	0	541	667	3	0	0	
3	0	0	0	0	0	541	662	3	0	0	
4	0	0	0	0	3	529	668	3	0	0	
5	0	0	0	0	0	518	663	3	0	0	
6	0	0	0	0	0	503	667	3	0	0	
7	0	0	0	0	0	504	663	3	0	0	
8	0	0	0	0	3	499	667	3	0	0	
9	0	0	0	0	0	504	663	3	0	0	
10	0	0	0	0	0	469	668	3	0	0	
11	0	0	0	0	0	543	664	3	0	0	
12	0	0	0	0	1	812	668	3	0	0	
13	0	0	0	0	0	1022	663	3	0	0	
14	0	0	0	0	0	856	668	3	0	0	
15	0	0	0	0	0	373	662	3	0	0	
0	0	0	0	0	3	248	668	3	0	0	
1	0	0	0	0	0	339	663	3	0	0	
2	0	0	0	0	0	398	667	3	0	0	
3	0	0	0	0	0	424	663	3	0	0	
4	0	0	0	0	3	428	667	3	0	0	
5	0	0	0	0	0	445	661	3	0	0	
6	0	0	0	0	0	453	667	3	0	0	
7	0	0	0	0	0	472	662	3	0	0	
8	0	0	0	0	3	483	667	3	0	0	
9	0	0	0	0	0	501	661	3	0	0	
10	0	0	0	0	0	501	667	3	0	0	
11	0	0	0	0	0	516	661	3	0	0	
12	0	0	0	0	3	516	665	3	0	0	
13	0	0	0	0	0	528	660	3	0	0	
14	0	0	0	0	0	532	666	3	0	0	
15	0	0	0	0	0	552	660	3	0	0	
0	0	0	0	0	3	560	667	3	0	0	
1	0	0	0	0	0	582	659	3	0	0	
2	0	0	0	0	0	585	665	3	0	0	
3	0	0	0	0	0	595	660	3	0	0	
4	0	0	0	0	3	583	666	3	0	0	
5	0	0	0	0	0	577	660	3	0	0	
6	0	0	0	0	0	551	665	3	0	0	
7	0	0	0	0	0	524	660	3	0	0	
8	0	0	0	0	3	481	667	3	0	0	
9	0	0	0	0	0	451	659	3	0	0	
10	0	0	0	0	0	419	667	3	0	0	
11	0	0	0	0	0	411	660	3	0	0	
12	0	0	0	0	3	401	666	3	0	0	
13	0	0	0	0	0	410	659	3	0	0	
14	0	0	0	0	0	412	666	3	0	0	
15	0	0	0	0	0	429	660	3	0	0	
0	0	0	0	0	3	435	664	3	0	0	
1	0	0	0	0	0	453	659	3	0	0	
2	0	0	0	0	0	455	665	3	0	0	
3	0	0	0	0	0	472	659	3	0	0	
4	0	0	0	0	3	474	665	3	0	0	
5	0	0	0	0	0	489	658	3	0	0	
6	0	0	0	0	0	488	665	3	0	0	
7	0	0	0	0	0	500	659	3	0	0	
8	0	0	0	0	1	495	665	3	0	0	
9	0	0	0	0	0	505	658	3	0	0	
10	0	0	0	0	0	500	665	3	0	0	
11	0	0	0	0	0	509	659	3	0	0	
12	0	0	0	0	3	504	664	3	0	0	
13	0	0	0	0	0	509	658	3	0	0	
14	0	0	0	0	0	503	664	3	0	0	
15	0	0	0	0	0	510	658	3	0	0	
0	0	0	0	0	3	506	665	3	0	0	
1	0	0	0	0	0	512	657	3	0	0	
2	0	0	0	0	0	507	664	3	0	0	
3	0	0	0	0	0	517	659	3	0	0	
4	0	0	0	0	3	510	665	3	0	0	
5	0	0	0	0	0	521	658	3	0	0	
6	0	0	0	0	0	512	665	3	0	0	
7	0	0	0	0	0	520	657	3	0	0	
8	0	0	0	0	3	512	664	3	0	0	
9	0	0	0	0	0	519	658	3	0	0	
10	0	0	0	0	0	516	664	3	0	0	
11	0	0	0	0	0	520	658	3	0	0	
12	0	0	0	0	3	515	665	3	0	0	
13	0	0	0	0	0	520	657	3	0	0	
14	0	0	0	0	0	515	664	3	0	0	
15	0	0	0	0	0	524	658	3	0	0	
0	0	0	0	0	3	518	665	3	0	0	
1	0	0	0	0	0	521	658	3	0	0	
2	0	0	0	0	0	515	665	3	0	0	
3	0	0	0	0	0	521	658	3	0	0	
4	0	0	0	0	3	525	665	3	0	0	
5	0	0	0	0	0	540	658	3	0	0	
6	0	0	0	0	0	532	664	3	0	0	
7	0	0	0	0	0	543	658	3	0	0	
8	0	0	0	0	3	533	664	3	0	0	
9	0	0	0	0	0	540	657	3	0	0	
10	0	0	0	0	0	527	665	3	0	0	
11	0	0	0	0	0	519	657	3	0	0	
12	0	0	0	0	3	495	664	3	0	0	
13	0	0	0	0	0	497	657	3	0	0	
14	0	0	0	0	0	493	664	3	0	0	
15	0	0	0	0	0	505	656	3	0	0	
0	0	0	0	0	3	474	665	3	0	0	
1	0	0	0	0	0	507	658	3	0	0	
2	0	0	0	0	0	719	664	3	0	0	
3	0	0	0	0	0	1022	656	3	0	0	
4	0	0	0	0	1	968	664	3	0	0	
5	0	0	0	0	0	461	656	3	0	0	
6	0	0	0	0	0	239	664	3	0	0	
7	0	0	0	0	0	336	657	3	0	0	
8	0	0	0	0	3	403	664	3	0	0	
9	0	0	0	0	0	426	657	3	0	0	
10	0	0	0	0	0	427	664	3	0	0	
11	0	0	0	0	0	446	657	3	0	0	
12	0	0	0	0	3	452	665	3	0	0	
13	0	0	0	0	0	471	657	3	0	0	
14	0	0	0	0	0	476	664	3	0	0	
15	0	0	0	0	0	493	657	3	0	0	
0	0	0	0	0	3	492	665	3	0	0	
1	0	0	0	0	0	507	657	3	0	0	
2	0	0	0	0	0	509	665	3	0	0	
3	0	0	0	0	0	526	658	3	0	0	
4	0	0	0	0	3	532	664	3	0	0	
5	0	0	0	0	0	549	657	3	0	0	
6	0	0	0	0	0	555	664	3	0	0	
7	0	0	0	0	0	578	657	3	0	0	
8	0	0	0	0	3	581	663	3	0	0	
9	0	0	0	0	0	594	656	3	0	0	
10	0	0	0	0	0	584	663	3	0	0	
11	0	0	0	0	0	587	655	3	0	0	
12	0	0	0	0	3	567	663	3	0	0	
13	0	0	0	0	0	548	655	3	0	0	
14	0	0	0	0	0	502	663	3	0	0	
15	0	0	0	0	0	468	655	3	0	0	
0	0	0	0	0	3	427	663	3	0	0	
1	0	0	0	0	0	414	654	3	0	0	
2	0	0	0	0	0	402	662	3	0	0	
3	0	0	0	0	0	409	654	3	0	0	
4	0	0	0	0	3	411	661	3	0	0	
5	0	0	0	0	0	430	654	3	0	0	
6	0	0	0	0	0	433	661	3	0	0	
7	0	0	0	0	0	452	654	3	0	0	
8	0	0	0	0	3	455	661	3	0	0	
9	0	0	0	0	0	471	652	3	0	0	
10	0	0	0	0	0	472	661	3	0	0	
11	0	0	0	0	0	485	653	3	0	0	
12	0	0	0	0	3	484	660	3	0	0	
13	0	0	0	0	0	497	652	3	0	0	
14	0	0	0	0	0	495	659	3	0	0	
15	0	0	0	0	0	506	651	3	0	0	
0	0	0	0	0	1	503	658	3	0	0	
1	0	0	0	0	0	512	651	3	0	0	
2	0	0	0	0	0	505	657	3	0	0	
3	0	0	0	0	0	513	648	3	0	0	
4	0	0	0	0	3	504	657	3	0	0	
5	0	0	0	0	0	514	649	3	0	0	
6	0	0	0	0	0	508	657	3	0	0	
7	0	0	0	0	0	513	649	3	0	0	
8	0	0	0	0	3	507	657	3	0	0	
9	0	0	0	0	0	513	649	3	0	0	
10	0	0	0	0	0	508	658	3	0	0	
11	0	0	0	0	0	515	651	3	0	0	
12	0	0	0	0	3	509	659	3	0	0	
13	0	0	0	0	0	516	650	3	0	0	
14	0	0	0	0	0	511	659	3	0	0	
15	0	0	0	0	0	519	651	3	0	0	
0	0	0	0	0	3	512	659	3	0	0	
1	0	0	0	0	0	521	650	3	0	0	
2	0	0	0	0	0	515	657	3	0	0	
3	0	0	0	0	0	520	650	3	0	0	
4	0	0	0	0	3	513	658	3	0	0	
5	0	0	0	0	0	519	651	3	0	0	
6	0	0	0	0	0	516	659	3	0	0	
7	0	0	0	0	0	523	652	3	0	0	
8	0	0	0	0	3	516	661	3	0	0	
9	0	0	0	0	0	522	652	3	0	0	
10	0	0	0	0	0	514	661	3	0	0	
11	0	0	0	0	0	520	652	3	0	0	
12	0	0	0	0	3	514	660	3	0	0	
13	0	0	0	0	0	521	651	3	0	0	
14	0	0	0	0	0	515	660	3	0	0	
15	0	0	0	0	0	525	652	3	0	0	
0	0	0	0	0	3	529	660	3	0	0	
1	0	0	0	0	0	536	652	3	0	0	
2	0	0	0	0	0	530	661	3	0	0	
3	0	0	0	0	0	541	653	3	0	0	
4	0	0	0	0	3	533	662	3	0	0	
5	0	0	0	0	0	527	653	3	0	0	
6	0	0	0	0	0	515	662	3	0	0	
7	0	0	0	0	0	507	654	3	0	0	
8	0	0	0	0	3	490	661	3	0	0	
9	0	0	0	0	0	498	655	3	0	0	
10	0	0	0	0	0	494	663	3	0	0	
11	0	0	0	0	0	490	655	3	0	0	
12	0	0	0	0	0	476	663	3	0	0	
13	0	0	0	0	0	631	654	3	0	0	
14	0	0	0	0	0	946	663	3	0	0	
15	0	0	0	0	0	1022	654	3	0	0	
0	0	0	0	0	3	652	662	3	0	0	
1	0	0	0	0	0	265	654	3	0	0	
2	0	0	0	0	0	288	663	3	0	0	
3	0	0	0	0	0	369	654	3	0	0	
4	0	0	0	0	3	409	663	3	0	0	
5	0	0	0	0	0	430	654	3	0	0	
6	0	0	0	0	0	435	663	3	0	0	
7	0	0	0	0	0	454	654	3	0	0	
8	0	0	0	0	3	456	661	3	0	0	
9	0	0	0	0	0	477	655	3	0	0	
10	0	0	0	0	0	480	665	3	0	0	
11	0	0	0	0	0	499	657	3	0	0	
12	0	0	0	0	3	500	667	3	0	0	
13	0	0	0	0	0	515	658	3	0	0	
14	0	0	0	0	0	516	665	3	0	0	
15	0	0	0	0	0	531	657	3	0	0	
0	0	0	0	0	0	536	664	3	0	0	
1	0	0	0	0	0	553	656	3	0	0	
2	0	0	0	0	0	563	664	3	0	0	
3	0	0	0	0	0	580	656	3	0	0	
4	0	0	0	0	3	580	664	3	0	0	
5	0	0	0	0	0	587	656	3	0	0	
6	0	0	0	0	0	573	665	3	0	0	
7	0	0	0	0	0	573	656	3	0	0	
8	0	0	0	0	3	546	664	3	0	0	
9	0	0	0	0	0	524	655	3	0	0	
10	0	0	0	0	0	480	664	3	0	0	
11	0	0	0	0	0	455	655	3	0	0	
12	0	0	0	0	3	421	664	3	0	0	
13	0	0	0	0	0	414	655	3	0	0	
14	0	0	0	0	0	402	664	3	0	0	
15	0	0	0	0	0	416	655	3	0	0	
0	0	0	0	0	3	419	664	3	0	0	
1	0	0	0	0	0	436	656	3	0	0	
2	0	0	0	0	0	438	666	3	0	0	
3	0	0	0	0	0	455	657	3	0	0	
4	0	0	0	0	3	459	667	3	0	0	
5	0	0	0	0	0	475	659	3	0	0	
6	0	0	0	0	0	474	668	3	0	0	
7	0	0	0	0	0	490	659	3	0	0	
8	0	0	0	0	3	487	669	3	0	0	
9	0	0	0	0	0	500	659	3	0	0	
10	0	0	0	0	0	496	667	3	0	0	
11	0	0	0	0	0	503	659	3	0	0	
12	0	0	0	0	3	498	668	3	0	0	
13	0	0	0	0	0	508	660	3	0	0	
14	0	0	0	0	0	501	668	3	0	0	
15	0	0	0	0	0	510	660	3	0	0	
0	0	0	0	0	3	504	669	3	0	0	
1	0	0	0	0	0	512	660	3	0	0	
2	0	0	0	0	0	504	669	3	0	0	
3	0	0	0	0	0	512	660	3	0	0	
4	0	0	0	0	3	505	670	3	0	0	
5	0	0	0	0	0	512	661	3	0	0	
6	0	0	0	0	0	507	670	3	0	0	
7	0	0	0	0	0	518	661	3	0	0	
8	0	0	0	0	3	512	670	3	0	0	
9	0	0	0	0	0	520	661	3	0	0	
10	0	0	0	0	0	513	670	3	0	0	
11	0	0	0	0	0	522	661	3	0	0	
12	0	0	0	0	1	518	671	3	0	0	
13	0	0	0	0	0	524	662	3	0	0	
14	0	0	0	0	0	516	671	3	0	0	
15	0	0	0	0	0	524	662	3	0	0	
0	0	0	0	0	3	517	671	3	0	0	
1	0	0	0	0	0	524	661	3	0	0	
2	0	0	0	0	0	518	671	3	0	0	
3	0	0	0	0	0	525	661	3	0	0	
4	0	0	0	0	3	517	671	3	0	0	
5	0	0	0	0	0	525	659	3	0	0	
6	0	0	0	0	0	518	670	3	0	0	
7	0	0	0	0	0	522	661	3	0	0	
8	0	0	0	0	3	515	670	3	0	0	
9	0	0	0	0	0	523	661	3	0	0	
10	0	0	0	0	0	526	671	3	0	0	
11	0	0	0	0	0	538	662	3	0	0	
12	0	0	0	0	3	530	671	3	0	0	
13	0	0	0	0	0	539	662	3	0	0	
14	0	0	0	0	0	532	672	3	0	0	
15	0	0	0	0	0	529	663	3	0	0	
0	0	0	0	0	3	515	671	3	0	0	
1	0	0	0	0	0	508	662	3	0	0	
2	0	0	0	0	0	492	672	3	0	0	
3	0	0	0	0	0	500	663	3	0	0	
4	0	0	0	0	3	495	671	3	0	0	
5	0	0	0	0	1	480	664	3	0	0	
6	0	0	0	0	0	500	672	3	0	0	
7	0	0	0	0	0	736	663	3	0	0	
8	0	0	0	0	3	1022	672	3	0	0	
9	0	0	0	0	1	979	663	3	0	0	
10	0	0	0	0	0	483	672	3	0	0	
11	0	0	0	0	0	234	663	3	0	0	
12	0	0	0	0	3	309	671	3	0	0	
13	0	0	0	0	0	387	662	3	0	0	
14	0	0	0	0	0	415	672	3	0	0	
15	0	0	0	0	0	433	661	3	0	0	
0	0	0	0	0	3	437	672	3	0	0	
1	0	0	0	0	0	456	663	3	0	0	
2	0	0	0	0	0	463	671	3	0	0	
3	0	0	0	0	0	486	663	3	0	0	
4	0	0	0	0	3	488	671	3	0	0	
5	0	0	0	0	0	505	663	3	0	0	
6	0	0	0	0	0	505	672	3	0	0	
7	0	0	0	0	0	519	663	3	0	0	
8	0	0	0	0	0	517	672	3	0	0	
9	0	0	0	0	0	535	662	3	0	0	
10	0	0	0	0	0	540	672	3	0	0	
11	0	0	0	0	0	561	663	3	0	0	
12	0	0	0	0	3	568	673	3	0	0	
13	0	0	0	0	0	588	663	3	0	0	
14	0	0	0	0	0	587	672	3	0	0	
15	0	0	0	0	0	590	662	3	0	0	
0	0	0	0	0	3	572	672	3	0	0	
1	0	0	0	0	0	569	663	3	0	0	
2	0	0	0	0	0	537	673	3	0	0	
3	0	0	0	0	0	509	664	3	0	0	
4	0	0	0	0	3	461	672	3	0	0	
5	0	0	0	0	0	435	664	3	0	0	
6	0	0	0	0	0	405	673	3	0	0	
7	0	0	0	0	0	401	664	3	0	0	
8	0	0	0	0	3	394	672	3	0	0	
9	0	0	0	0	0	408	662	3	0	0	
10	0	0	0	0	0	414	673	3	0	0	
11	0	0	0	0	0	432	664	3	0	0	
12	0	0	0	0	3	438	671	3	0	0	
13	0	0	0	0	0	459	660	3	0	0	
14	0	0	0	0	0	462	668	3	0	0	
15	0	0	0	0	0	479	659	3	0	0	
0	0	0	0	0	3	478	667	3	0	0	
1	0	0	0	0	0	491	657	3	0	0	
2	0	0	0	0	0	491	667	3	0	0	
3	0	0	0	0	0	500	657	3	0	0	
4	0	0	0	0	3	496	667	3	0	0	
5	0	0	0	0	0	506	658	3	0	0	
6	0	0	0	0	0	504	667	3	0	0	
7	0	0	0	0	0	511	657	3	0	0	
8	0	0	0	0	3	505	667	3	0	0	
9	0	0	0	0	0	510	658	3	0	0	
10	0	0	0	0	0	503	666	3	0	0	
11	0	0	0	0	0	511	656	3	0	0	
12	0	0	0	0	3	505	666	3	0	0	
13	0	0	0	0	0	513	656	3	0	0	
14	0	0	0	0	0	507	665	3	0	0	
15	0	0	0	0	0	515	655	3	0	0	
0	0	0	0	0	3	508	664	3	0	0	
1	0	0	0	0	0	516	656	3	0	0	
2	0	0	0	0	0	510	664	3	0	0	
3	0	0	0	0	0	518	656	3	0	0	
4	0	0	0	0	1	515	665	3	0	0	
5	0	0	0	0	0	520	655	3	0	0	
6	0	0	0	0	0	514	665	3	0	0	
7	0	0	0	0	0	521	656	3	0	0	
8	0	0	0	0	3	515	665	3	0	0	
9	0	0	0	0	0	521	655	3	0	0	
10	0	0	0	0	0	516	666	3	0	0	
11	0	0	0	0	0	523	656	3	0	0	
12	0	0	0	0	3	516	665	3	0	0	
13	0	0	0	0	0	521	656	3	0	0	
14	0	0	0	0	0	514	665	3	0	0	
15	0	0	0	0	0	521	657	3	0	0	
0	0	0	0	0	3	512	665	3	0	0	
1	0	0	0	0	0	520	655	3	0	0	
2	0	0	0	0	0	514	664	3	0	0	
