0,1,2,3,4,5,6,7,8,9,10
0,0,0,0,0,0,516,424,1,0,0
1,0,0,0,0,0,478,450,1,0,0
2,0,0,0,0,3,483,423,1,0,0
3,0,0,0,0,0,453,449,1,0,0
4,0,0,0,0,0,471,425,1,0,0
5,0,0,0,0,0,455,451,1,0,0
6,0,0,0,0,1,481,425,1,0,0
7,0,0,0,0,0,467,449,1,0,0
8,0,0,0,0,0,495,424,1,0,0
9,0,0,0,0,0,479,452,1,0,0
10,0,0,0,0,3,504,424,1,0,0
11,0,0,0,0,0,489,451,1,0,0
12,0,0,0,0,0,511,425,1,0,0
13,0,0,0,0,0,494,452,1,0,0
14,0,0,0,0,3,514,428,1,0,0
15,0,0,0,0,0,494,454,1,0,0
0,0,0,0,0,0,519,428,1,0,0
1,0,0,0,0,0,501,454,1,0,0
2,0,0,0,0,3,524,429,1,0,0
3,0,0,0,0,0,505,454,1,0,0
4,0,0,0,0,0,526,430,1,0,0
5,0,0,0,0,0,503,453,1,0,0
6,0,0,0,0,3,521,428,1,0,0
7,0,0,0,0,0,502,452,1,0,0
8,0,0,0,0,0,522,430,1,0,0
9,0,0,0,0,0,500,455,1,0,0
10,0,0,0,0,1,519,430,1,0,0
11,0,0,0,0,0,500,456,1,0,0
12,0,0,0,0,0,521,430,1,0,0
13,0,0,0,0,0,502,454,1,0,0
14,0,0,0,0,3,522,431,1,0,0
15,0,0,0,0,0,504,456,1,0,0
0,0,0,0,0,0,525,431,1,0,0
1,0,0,0,0,0,506,455,1,0,0
2,0,0,0,0,3,525,432,1,0,0
3,0,0,0,0,0,507,455,1,0,0
4,0,0,0,0,0,528,431,1,0,0
5,0,0,0,0,0,508,455,1,0,0
6,0,0,0,0,3,528,429,1,0,0
7,0,0,0,0,0,505,455,1,0,0
8,0,0,0,0,0,529,431,1,0,0
9,0,0,0,0,0,517,454,1,0,0
10,0,0,0,0,3,525,431,1,0,0
11,0,0,0,0,0,512,456,1,0,0
12,0,0,0,0,0,537,431,1,0,0
13,0,0,0,0,0,518,456,1,0,0
14,0,0,0,0,3,530,432,1,0,0
15,0,0,0,0,0,507,456,1,0,0
0,0,0,0,0,0,522,432,1,0,0
1,0,0,0,0,0,501,456,1,0,0
2,0,0,0,0,3,522,430,1,0,0
3,0,0,0,0,0,503,455,1,0,0
4,0,0,0,0,0,511,430,1,0,0
5,0,0,0,0,0,455,455,1,0,0
6,0,0,0,0,3,505,430,1,0,0
7,0,0,0,0,1,684,455,1,0,0
8,0,0,0,0,0,1022,431,1,0,0
9,0,0,0,0,0,747,456,1,0,0
10,0,0,0,0,3,403,431,1,0,0
11,0,0,0,0,0,388,456,1,0,0
12,0,0,0,0,0,451,433,1,0,0
13,0,0,0,0,0,433,456,1,0,0
14,0,0,0,0,3,454,433,1,0,0
15,0,0,0,0,0,438,457,1,0,0
0,0,0,0,0,0,465,433,1,0,0
1,0,0,0,0,0,452,457,1,0,0
2,0,0,0,0,3,480,432,1,0,0
3,0,0,0,0,0,470,455,1,0,0
4,0,0,0,0,0,499,432,1,0,0
5,0,0,0,0,0,488,456,1,0,0
6,0,0,0,0,1,516,432,1,0,0
7,0,0,0,0,0,505,456,1,0,0
8,0,0,0,0,0,532,433,1,0,0
9,0,0,0,0,0,521,457,1,0,0
10,0,0,0,0,3,546,432,1,0,0
11,0,0,0,0,0,528,457,1,0,0
12,0,0,0,0,0,544,433,1,0,0
13,0,0,0,0,0,520,456,1,0,0
14,0,0,0,0,3,536,432,1,0,0
15,0,0,0,0,0,513,457,1,0,0
0,0,0,0,0,0,523,433,1,0,0
1,0,0,0,0,0,483,457,1,0,0
2,0,0,0,0,3,488,431,1,0,0
3,0,0,0,0,0,457,456,1,0,0
4,0,0,0,0,0,468,433,1,0,0
5,0,0,0,0,0,447,457,1,0,0
6,0,0,0,0,3,470,433,1,0,0
7,0,0,0,0,0,455,459,1,0,0
8,0,0,0,0,0,482,434,1,0,0
9,0,0,0,0,0,469,458,1,0,0
10,0,0,0,0,3,493,434,1,0,0
11,0,0,0,0,0,475,457,1,0,0
12,0,0,0,0,0,499,433,1,0,0
13,0,0,0,0,0,483,458,1,0,0
14,0,0,0,0,3,505,434,1,0,0
15,0,0,0,0,0,486,457,1,0,0
0,0,0,0,0,0,507,434,1,0,0
1,0,0,0,0,0,491,457,1,0,0
2,0,0,0,0,3,512,434,1,0,0
3,0,0,0,0,1,497,456,1,0,0
4,0,0,0,0,0,515,433,1,0,0
5,0,0,0,0,0,496,458,1,0,0
6,0,0,0,0,3,516,435,1,0,0
7,0,0,0,0,0,499,458,1,0,0
8,0,0,0,0,0,518,435,1,0,0
9,0,0,0,0,0,497,458,1,0,0
10,0,0,0,0,3,518,435,1,0,0
11,0,0,0,0,0,501,459,1,0,0
12,0,0,0,0,0,522,435,1,0,0
13,0,0,0,0,0,504,458,1,0,0
14,0,0,0,0,3,524,434,1,0,0
15,0,0,0,0,0,507,458,1,0,0
0,0,0,0,0,0,525,434,1,0,0
1,0,0,0,0,0,505,458,1,0,0
2,0,0,0,0,1,524,438,1,0,0
3,0,0,0,0,0,506,457,1,0,0
4,0,0,0,0,0,526,435,1,0,0
5,0,0,0,0,0,509,458,1,0,0
6,0,0,0,0,3,527,434,1,0,0
7,0,0,0,0,0,507,459,1,0,0
8,0,0,0,0,0,526,434,1,0,0
9,0,0,0,0,0,518,460,1,0,0
10,0,0,0,0,3,526,434,1,0,0
11,0,0,0,0,0,509,459,1,0,0
12,0,0,0,0,0,533,435,1,0,0
13,0,0,0,0,0,517,458,1,0,0
14,0,0,0,0,3,525,436,1,0,0
15,0,0,0,0,0,505,459,1,0,0
0,0,0,0,0,0,518,436,1,0,0
1,0,0,0,0,0,496,457,1,0,0
2,0,0,0,0,3,516,435,1,0,0
3,0,0,0,0,0,499,460,1,0,0
4,0,0,0,0,0,518,435,1,0,0
5,0,0,0,0,0,457,459,1,0,0
6,0,0,0,0,3,476,435,1,0,0
7,0,0,0,0,0,600,459,1,0,0
8,0,0,0,0,0,973,435,1,0,0
9,0,0,0,0,0,882,458,1,0,0
10,0,0,0,0,3,463,435,1,0,0
11,0,0,0,0,0,361,459,1,0,0
12,0,0,0,0,0,438,434,1,0,0
13,0,0,0,0,0,426,459,1,0,0
14,0,0,0,0,3,447,435,1,0,0
15,0,0,0,0,1,433,458,1,0,0
0,0,0,0,0,0,462,435,1,0,0
1,0,0,0,0,0,454,458,1,0,0
2,0,0,0,0,3,481,435,1,0,0
3,0,0,0,0,0,472,460,1,0,0
4,0,0,0,0,0,498,435,1,0,0
5,0,0,0,0,0,487,459,1,0,0
6,0,0,0,0,3,513,435,1,0,0
7,0,0,0,0,0,502,459,1,0,0
8,0,0,0,0,0,528,436,1,0,0
9,0,0,0,0,0,515,458,1,0,0
10,0,0,0,0,3,541,435,1,0,0
11,0,0,0,0,0,527,458,1,0,0
12,0,0,0,0,0,546,435,1,0,0
13,0,0,0,0,0,525,457,1,0,0
14,0,0,0,0,0,542,437,1,0,0
15,0,0,0,0,0,521,459,1,0,0
0,0,0,0,0,0,531,436,1,0,0
1,0,0,0,0,0,497,459,1,0,0
2,0,0,0,0,3,499,435,1,0,0
3,0,0,0,0,0,468,458,1,0,0
4,0,0,0,0,0,474,435,1,0,0
5,0,0,0,0,0,454,460,1,0,0
6,0,0,0,0,3,475,436,1,0,0
7,0,0,0,0,0,459,459,1,0,0
8,0,0,0,0,0,483,435,1,0,0
9,0,0,0,0,0,468,459,1,0,0
10,0,0,0,0,3,493,436,1,0,0
11,0,0,0,0,0,480,459,1,0,0
12,0,0,0,0,0,502,436,1,0,0
13,0,0,0,0,0,488,460,1,0,0
14,0,0,0,0,3,500,435,1,0,0
15,0,0,0,0,0,487,460,1,0,0
0,0,0,0,0,0,509,436,1,0,0
1,0,0,0,0,0,493,460,1,0,0
2,0,0,0,0,3,515,437,1,0,0
3,0,0,0,0,0,499,459,1,0,0
4,0,0,0,0,0,519,437,1,0,0
5,0,0,0,0,0,503,459,1,0,0
6,0,0,0,0,3,520,436,1,0,0
7,0,0,0,0,0,502,460,1,0,0
8,0,0,0,0,0,519,436,1,0,0
9,0,0,0,0,0,503,460,1,0,0
10,0,0,0,0,3,522,438,1,0,0
11,0,0,0,0,0,503,460,1,0,0
12,0,0,0,0,0,522,438,1,0,0
13,0,0,0,0,0,506,460,1,0,0
14,0,0,0,0,3,525,439,1,0,0
15,0,0,0,0,0,505,460,1,0,0
0,0,0,0,0,0,525,438,1,0,0
1,0,0,0,0,0,505,460,1,0,0
2,0,0,0,0,3,523,437,1,0,0
3,0,0,0,0,0,506,459,1,0,0
4,0,0,0,0,0,526,436,1,0,0
5,0,0,0,0,0,507,459,1,0,0
6,0,0,0,0,3,526,436,1,0,0
7,0,0,0,0,0,507,460,1,0,0
8,0,0,0,0,0,524,437,1,0,0
9,0,0,0,0,0,504,460,1,0,0
10,0,0,0,0,1,530,438,1,0,0
11,0,0,0,0,1,511,460,1,0,0
12,0,0,0,0,0,519,437,1,0,0
13,0,0,0,0,0,512,459,1,0,0
14,0,0,0,0,3,536,438,1,0,0
15,0,0,0,0,0,508,459,1,0,0
0,0,0,0,0,0,524,437,1,0,0
1,0,0,0,0,0,501,459,1,0,0
2,0,0,0,0,3,516,438,1,0,0
3,0,0,0,0,0,497,460,1,0,0
4,0,0,0,0,0,515,436,1,0,0
5,0,0,0,0,0,501,459,1,0,0
6,0,0,0,0,3,496,438,1,0,0
7,0,0,0,0,0,452,459,1,0,0
8,0,0,0,0,0,535,438,1,0,0
9,0,0,0,0,0,770,460,1,0,0
10,0,0,0,0,3,1021,438,1,0,0
11,0,0,0,0,0,631,459,1,0,0
12,0,0,0,0,0,381,437,1,0,0
13,0,0,0,0,0,404,459,1,0,0
14,0,0,0,0,3,448,437,1,0,0
15,0,0,0,0,0,431,459,1,0,0
0,0,0,0,0,0,453,436,1,0,0
1,0,0,0,0,0,442,459,1,0,0
2,0,0,0,0,3,467,436,1,0,0
3,0,0,0,0,0,457,459,1,0,0
4,0,0,0,0,0,480,437,1,0,0
5,0,0,0,0,0,476,459,1,0,0
6,0,0,0,0,3,500,437,1,0,0
7,0,0,0,0,0,491,459,1,0,0
8,0,0,0,0,0,515,438,1,0,0
9,0,0,0,0,0,505,460,1,0,0
10,0,0,0,0,3,529,439,1,0,0
11,0,0,0,0,0,519,460,1,0,0
12,0,0,0,0,0,541,438,1,0,0
13,0,0,0,0,0,525,460,1,0,0
14,0,0,0,0,3,543,438,1,0,0
15,0,0,0,0,0,526,458,1,0,0
0,0,0,0,0,0,544,437,1,0,0
1,0,0,0,0,0,523,458,1,0,0
2,0,0,0,0,3,528,436,1,0,0
3,0,0,0,0,0,492,457,1,0,0
4,0,0,0,0,0,493,434,1,0,0
5,0,0,0,0,0,463,455,1,0,0
6,0,0,0,0,0,473,431,1,0,0
7,0,0,0,0,1,453,455,1,0,0
8,0,0,0,0,0,473,430,1,0,0
9,0,0,0,0,0,457,453,1,0,0
10,0,0,0,0,3,480,428,1,0,0
11,0,0,0,0,0,468,452,1,0,0
12,0,0,0,0,0,491,429,1,0,0
13,0,0,0,0,0,478,449,1,0,0
14,0,0,0,0,3,502,428,1,0,0
15,0,0,0,0,0,485,449,1,0,0
0,0,0,0,0,0,503,427,1,0,0
1,0,0,0,0,0,487,449,1,0,0
2,0,0,0,0,3,508,427,1,0,0
3,0,0,0,0,0,492,447,1,0,0
4,0,0,0,0,0,515,427,1,0,0
5,0,0,0,0,0,499,448,1,0,0
6,0,0,0,0,3,520,425,1,0,0
7,0,0,0,0,0,501,449,1,0,0
8,0,0,0,0,0,520,425,1,0,0
9,0,0,0,0,0,502,450,1,0,0
10,0,0,0,0,3,525,425,1,0,0
11,0,0,0,0,0,507,448,1,0,0
12,0,0,0,0,0,524,426,1,0,0
13,0,0,0,0,0,508,448,1,0,0
14,0,0,0,0,3,526,427,1,0,0
15,0,0,0,0,0,506,447,1,0,0
0,0,0,0,0,0,522,425,1,0,0
1,0,0,0,0,0,501,449,1,0,0
2,0,0,0,0,3,516,426,1,0,0
3,0,0,0,0,0,496,448,1,0,0
4,0,0,0,0,0,513,428,1,0,0
5,0,0,0,0,0,498,448,1,0,0
6,0,0,0,0,3,517,428,1,0,0
7,0,0,0,0,0,501,451,1,0,0
8,0,0,0,0,0,520,431,1,0,0
9,0,0,0,0,0,505,455,1,0,0
10,0,0,0,0,3,521,435,1,0,0
11,0,0,0,0,0,506,460,1,0,0
12,0,0,0,0,0,522,442,1,0,0
13,0,0,0,0,0,519,466,1,0,0
14,0,0,0,0,3,524,448,1,0,0
15,0,0,0,0,0,514,470,1,0,0
0,0,0,0,0,0,536,452,1,0,0
1,0,0,0,0,0,526,473,1,0,0
2,0,0,0,0,1,535,455,1,0,0
3,0,0,0,0,0,515,476,1,0,0
4,0,0,0,0,0,524,456,1,0,0
5,0,0,0,0,0,502,478,2,0,0
6,0,0,0,0,3,517,457,1,0,0
7,0,0,0,0,0,502,479,2,0,0
8,0,0,0,0,0,514,459,1,0,0
9,0,0,0,0,0,457,477,1,0,0
10,0,0,0,0,3,475,459,1,0,0
11,0,0,0,0,0,604,478,1,0,0
12,0,0,0,0,0,976,459,1,0,0
13,0,0,0,0,0,879,477,1,0,0
14,0,0,0,0,3,467,458,1,0,0
15,0,0,0,0,0,372,477,1,0,0
0,0,0,0,0,0,446,458,1,0,0
1,0,0,0,0,0,436,476,1,0,0
2,0,0,0,0,3,455,457,1,0,0
3,0,0,0,0,0,446,476,1,0,0
4,0,0,0,0,0,468,457,1,0,0
5,0,0,0,0,0,462,476,1,0,0
6,0,0,0,0,0,484,456,1,0,0
7,0,0,0,0,0,475,475,1,0,0
8,0,0,0,0,0,499,454,1,0,0
9,0,0,0,0,0,491,475,1,0,0
10,0,0,0,0,3,513,452,1,0,0
11,0,0,0,0,0,504,472,1,0,0
12,0,0,0,0,0,527,453,1,0,0
13,0,0,0,0,0,518,472,1,0,0
14,0,0,0,0,3,537,451,1,0,0
15,0,0,0,0,0,528,471,1,0,0
0,0,0,0,0,0,544,452,1,0,0
1,0,0,0,0,0,529,471,1,0,0
2,0,0,0,0,3,543,451,1,0,0
3,0,0,0,0,0,528,471,1,0,0
4,0,0,0,0,0,537,450,1,0,0
5,0,0,0,0,0,504,468,1,0,0
6,0,0,0,0,3,500,449,1,0,0
7,0,0,0,0,0,469,468,1,0,0
8,0,0,0,0,0,476,448,1,0,0
9,0,0,0,0,0,456,468,1,0,0
10,0,0,0,0,3,470,448,1,0,0
11,0,0,0,0,0,460,466,1,0,0
12,0,0,0,0,0,478,447,1,0,0
13,0,0,0,0,0,466,466,1,0,0
14,0,0,0,0,3,488,444,1,0,0
15,0,0,0,0,0,476,464,1,0,0
0,0,0,0,0,0,496,441,1,0,0
1,0,0,0,0,0,485,463,1,0,0
2,0,0,0,0,3,504,440,1,0,0
3,0,0,0,0,0,489,461,1,0,0
4,0,0,0,0,0,507,438,1,0,0
5,0,0,0,0,0,490,457,1,0,0
6,0,0,0,0,3,508,435,1,0,0
7,0,0,0,0,0,494,454,1,0,0
8,0,0,0,0,0,512,432,1,0,0
9,0,0,0,0,0,496,454,1,0,0
10,0,0,0,0,3,513,430,1,0,0
11,0,0,0,0,0,495,451,1,0,0
12,0,0,0,0,0,511,430,1,0,0
13,0,0,0,0,0,495,450,1,0,0
14,0,0,0,0,3,511,429,1,0,0
15,0,0,0,0,0,496,449,1,0,0
0,0,0,0,0,0,515,426,1,0,0
1,0,0,0,0,0,498,450,1,0,0
2,0,0,0,0,0,516,427,1,0,0
3,0,0,0,0,0,498,449,1,0,0
4,0,0,0,0,0,515,425,1,0,0
5,0,0,0,0,0,497,448,1,0,0
6,0,0,0,0,3,517,424,1,0,0
7,0,0,0,0,0,499,447,1,0,0
8,0,0,0,0,0,515,425,1,0,0
9,0,0,0,0,0,500,448,1,0,0
10,0,0,0,0,3,517,425,1,0,0
11,0,0,0,0,0,501,448,1,0,0
12,0,0,0,0,0,516,427,1,0,0
13,0,0,0,0,0,498,447,1,0,0
14,0,0,0,0,3,527,424,1,0,0
15,0,0,0,0,0,505,447,1,0,0
0,0,0,0,0,0,519,425,1,0,0
1,0,0,0,0,0,512,447,1,0,0
2,0,0,0,0,3,541,425,1,0,0
3,0,0,0,0,0,518,446,1,0,0
4,0,0,0,0,0,533,427,1,0,0
5,0,0,0,0,0,513,451,1,0,0
6,0,0,0,0,3,525,434,1,0,0
7,0,0,0,0,0,508,458,1,0,0
8,0,0,0,0,0,526,442,1,0,0
9,0,0,0,0,0,513,464,1,0,0
10,0,0,0,0,3,495,444,1,0,0
11,0,0,0,0,0,469,463,1,0,0
12,0,0,0,0,0,573,439,1,0,0
13,0,0,0,0,0,858,457,1,0,0
14,0,0,0,0,3,996,436,1,0,0
15,0,0,0,0,0,566,454,1,0,0
0,0,0,0,0,0,385,432,1,0,0
1,0,0,0,0,0,424,449,1,0,0
2,0,0,0,0,3,453,428,1,0,0
3,0,0,0,0,0,442,449,1,0,0
4,0,0,0,0,0,464,429,1,0,0
5,0,0,0,0,0,460,449,1,0,0
6,0,0,0,0,3,482,428,1,0,0
7,0,0,0,0,0,469,449,1,0,0
8,0,0,0,0,0,487,428,1,0,0
9,0,0,0,0,0,475,448,1,0,0
10,0,0,0,0,3,494,428,1,0,0
11,0,0,0,0,1,485,448,1,0,0
12,0,0,0,0,0,508,425,1,0,0
13,0,0,0,0,0,501,446,1,0,0
14,0,0,0,0,1,526,427,1,0,0
15,0,0,0,0,0,513,448,1,0,0
0,0,0,0,0,0,531,426,1,0,0
1,0,0,0,0,0,518,447,1,0,0
2,0,0,0,0,3,535,427,1,0,0
3,0,0,0,0,0,526,446,1,0,0
4,0,0,0,0,0,539,427,1,0,0
5,0,0,0,0,0,519,448,1,0,0
6,0,0,0,0,3,523,426,1,0,0
7,0,0,0,0,0,491,447,1,0,0
8,0,0,0,0,0,496,426,1,0,0
9,0,0,0,0,0,470,446,1,0,0
10,0,0,0,0,3,481,424,1,0,0
11,0,0,0,0,0,464,447,1,0,0
12,0,0,0,0,0,479,423,1,0,0
13,0,0,0,0,0,466,447,1,0,0
14,0,0,0,0,3,486,426,1,0,0
15,0,0,0,0,0,469,447,1,0,0
0,0,0,0,0,0,483,428,1,0,0
1,0,0,0,0,0,471,448,1,0,0
2,0,0,0,0,3,487,431,1,0,0
3,0,0,0,0,1,473,451,1,0,0
4,0,0,0,0,0,485,436,1,0,0
5,0,0,0,0,0,467,458,1,0,0
6,0,0,0,0,3,481,442,1,0,0
7,0,0,0,0,1,467,464,1,0,0
8,0,0,0,0,0,484,446,1,0,0
9,0,0,0,0,0,470,468,1,0,0
10,0,0,0,0,3,488,451,1,0,0
11,0,0,0,0,0,478,472,1,0,0
12,0,0,0,0,0,497,455,1,0,0
13,0,0,0,0,0,487,477,1,0,0
14,0,0,0,0,3,504,457,1,0,0
15,0,0,0,0,0,492,480,1,0,0
0,0,0,0,0,0,511,463,2,0,0
1,0,0,0,0,0,502,482,2,0,0
2,0,0,0,0,3,520,464,1,0,0
3,0,0,0,0,0,510,483,2,0,0
4,0,0,0,0,0,526,466,2,0,0
5,0,0,0,0,0,512,484,2,0,0
6,0,0,0,0,3,530,466,1,0,0
7,0,0,0,0,0,520,484,1,0,0
8,0,0,0,0,0,536,465,1,0,0
9,0,0,0,0,0,525,482,1,0,0
10,0,0,0,0,0,540,463,1,0,0
11,0,0,0,0,0,532,481,1,0,0
12,0,0,0,0,0,544,464,1,0,0
13,0,0,0,0,0,535,481,1,0,0
14,0,0,0,0,3,552,461,1,0,0
15,0,0,0,0,0,523,480,1,0,0
0,0,0,0,0,0,547,463,1,0,0
1,0,0,0,0,0,536,481,2,0,0
2,0,0,0,0,3,540,463,1,0,0
3,0,0,0,0,0,521,483,1,0,0
4,0,0,0,0,0,529,463,2,0,0
5,0,0,0,0,0,509,483,2,0,0
6,0,0,0,0,3,521,464,1,0,0
7,0,0,0,0,0,509,482,2,0,0
8,0,0,0,0,0,525,464,1,0,0
9,0,0,0,0,0,497,482,2,0,0
10,0,0,0,0,3,477,463,1,0,0
11,0,0,0,0,0,492,483,2,0,0
12,0,0,0,0,0,714,464,1,0,0
13,0,0,0,0,0,1020,482,2,0,0
14,0,0,0,0,3,740,463,1,0,0
15,0,0,0,0,0,395,483,2,0,0
0,0,0,0,0,0,407,464,1,0,0
1,0,0,0,0,0,434,484,2,0,0
2,0,0,0,0,3,444,465,1,0,0
3,0,0,0,0,0,432,483,2,0,0
4,0,0,0,0,0,452,464,1,0,0
5,0,0,0,0,0,445,483,2,0,0
6,0,0,0,0,3,464,465,1,0,0
7,0,0,0,0,0,458,483,1,0,0
8,0,0,0,0,0,481,464,1,0,0
9,0,0,0,0,0,475,483,2,0,0
10,0,0,0,0,3,497,466,1,0,0
11,0,0,0,0,0,495,483,2,0,0
12,0,0,0,0,0,517,465,1,0,0
13,0,0,0,0,0,510,483,2,0,0
14,0,0,0,0,3,531,465,1,0,0
15,0,0,0,0,1,522,483,2,0,0
0,0,0,0,0,0,537,467,1,0,0
1,0,0,0,0,0,524,485,2,0,0
2,0,0,0,0,3,533,467,1,0,0
3,0,0,0,0,0,522,483,1,0,0
4,0,0,0,0,0,531,467,2,0,0
5,0,0,0,0,0,511,484,2,0,0
6,0,0,0,0,1,510,466,1,0,0
7,0,0,0,0,0,483,484,2,0,0
8,0,0,0,0,0,483,466,1,0,0
9,0,0,0,0,0,463,483,2,0,0
10,0,0,0,0,3,474,466,1,0,0
11,0,0,0,0,0,463,484,2,0,0
12,0,0,0,0,0,481,467,2,0,0
13,0,0,0,0,0,473,484,2,0,0
14,0,0,0,0,3,487,467,1,0,0
15,0,0,0,0,0,481,486,2,0,0
0,0,0,0,0,0,498,468,2,0,0
1,0,0,0,0,0,490,486,2,0,0
2,0,0,0,0,3,505,467,1,0,0
3,0,0,0,0,0,494,485,2,0,0
4,0,0,0,0,0,507,467,1,0,0
5,0,0,0,0,0,496,485,2,0,0
6,0,0,0,0,3,512,468,1,0,0
7,0,0,0,0,0,501,486,2,0,0
8,0,0,0,0,0,513,468,1,0,0
9,0,0,0,0,0,500,486,2,0,0
10,0,0,0,0,3,512,468,1,0,0
11,0,0,0,0,0,499,485,2,0,0
12,0,0,0,0,0,512,468,2,0,0
13,0,0,0,0,0,500,486,1,0,0
14,0,0,0,0,3,515,467,1,0,0
15,0,0,0,0,0,504,485,2,0,0
0,0,0,0,0,0,519,468,2,0,0
1,0,0,0,0,0,506,483,2,0,0
2,0,0,0,0,3,519,467,1,0,0
3,0,0,0,0,0,508,484,2,0,0
4,0,0,0,0,0,517,467,2,0,0
5,0,0,0,0,0,508,485,2,0,0
6,0,0,0,0,3,520,468,1,0,0
7,0,0,0,0,0,509,485,1,0,0
8,0,0,0,0,0,523,468,2,0,0
9,0,0,0,0,0,509,485,2,0,0
10,0,0,0,0,3,522,468,1,0,0
11,0,0,0,0,1,509,485,1,0,0
12,0,0,0,0,0,532,468,1,0,0
13,0,0,0,0,0,508,484,2,0,0
14,0,0,0,0,3,520,468,1,0,0
15,0,0,0,0,0,514,484,2,0,0
0,0,0,0,0,0,531,468,2,0,0
1,0,0,0,0,0,508,484,2,0,0
2,0,0,0,0,0,519,467,1,0,0
3,0,0,0,0,0,504,483,2,0,0
4,0,0,0,0,0,512,466,2,0,0
5,0,0,0,0,0,499,484,2,0,0
6,0,0,0,0,3,517,467,1,0,0
7,0,0,0,0,0,506,483,2,0,0
8,0,0,0,0,0,483,466,2,0,0
9,0,0,0,0,0,457,482,1,0,0
10,0,0,0,0,3,566,464,1,0,0
11,0,0,0,0,0,878,478,1,0,0
12,0,0,0,0,0,967,457,1,0,0
13,0,0,0,0,0,544,472,1,0,0
14,0,0,0,0,3,386,451,1,0,0
15,0,0,0,0,0,427,463,1,0,0
0,0,0,0,0,0,453,443,1,0,0
1,0,0,0,0,0,439,458,1,0,0
2,0,0,0,0,3,452,440,1,0,0
3,0,0,0,0,0,444,455,1,0,0
4,0,0,0,0,0,460,435,1,0,0
5,0,0,0,0,0,451,450,1,0,0
6,0,0,0,0,3,471,432,1,0,0
7,0,0,0,0,0,463,450,1,0,0
8,0,0,0,0,0,481,431,1,0,0
9,0,0,0,0,0,477,448,1,0,0
10,0,0,0,0,3,500,430,1,0,0
11,0,0,0,0,0,493,446,1,0,0
12,0,0,0,0,0,510,430,1,0,0
13,0,0,0,0,0,506,445,1,0,0
14,0,0,0,0,3,522,428,1,0,0
15,0,0,0,0,0,509,447,1,0,0
0,0,0,0,0,0,519,430,1,0,0
1,0,0,0,0,0,504,447,1,0,0
2,0,0,0,0,3,516,431,1,0,0
3,0,0,0,0,0,501,447,1,0,0
4,0,0,0,0,0,502,431,1,0,0
5,0,0,0,0,0,476,445,1,0,0
6,0,0,0,0,3,475,428,1,0,0
7,0,0,0,0,0,455,447,1,0,0
8,0,0,0,0,0,463,430,1,0,0
9,0,0,0,0,0,451,449,1,0,0
10,0,0,0,0,3,464,435,1,0,0
11,0,0,0,0,0,460,458,1,0,0
12,0,0,0,0,0,476,446,1,0,0
13,0,0,0,0,0,471,468,1,0,0
14,0,0,0,0,1,491,457,1,0,0
15,0,0,0,0,0,487,476,1,0,0
0,0,0,0,0,0,508,457,1,0,0
1,0,0,0,0,0,509,476,1,0,0
2,0,0,0,0,3,521,460,1,0,0
3,0,0,0,0,0,512,479,1,0,0
4,0,0,0,0,0,530,465,2,0,0
5,0,0,0,0,0,520,482,2,0,0
6,0,0,0,0,3,534,469,1,0,0
7,0,0,0,0,0,523,483,1,0,0
8,0,0,0,0,0,534,469,2,0,0
9,0,0,0,0,0,523,486,2,0,0
10,0,0,0,0,3,531,471,1,0,0
11,0,0,0,0,0,517,489,2,0,0
12,0,0,0,0,0,531,472,2,0,0
13,0,0,0,0,0,521,487,2,0,0
14,0,0,0,0,3,535,472,1,0,0
15,0,0,0,0,0,525,487,1,0,0
0,0,0,0,0,0,540,469,2,0,0
1,0,0,0,0,0,528,485,2,0,0
2,0,0,0,0,1,538,467,1,0,0
3,0,0,0,0,0,526,482,1,0,0
4,0,0,0,0,0,533,465,2,0,0
5,0,0,0,0,0,520,480,2,0,0
6,0,0,0,0,3,528,463,1,0,0
7,0,0,0,0,0,516,478,1,0,0
8,0,0,0,0,0,524,462,1,0,0
9,0,0,0,0,0,511,474,2,0,0
10,0,0,0,0,3,516,456,1,0,0
11,0,0,0,0,0,508,472,1,0,0
12,0,0,0,0,0,513,455,1,0,0
13,0,0,0,0,0,495,469,1,0,0
14,0,0,0,0,3,516,452,1,0,0
15,0,0,0,0,0,513,465,1,0,0
0,0,0,0,0,0,515,450,1,0,0
1,0,0,0,0,0,500,463,1,0,0
2,0,0,0,0,3,507,447,1,0,0
3,0,0,0,0,0,493,461,1,0,0
4,0,0,0,0,0,504,444,1,0,0
5,0,0,0,0,0,497,456,1,0,0
6,0,0,0,0,3,509,441,1,0,0
7,0,0,0,0,0,483,457,1,0,0
8,0,0,0,0,0,466,440,1,0,0
9,0,0,0,0,0,491,456,1,0,0
10,0,0,0,0,3,721,442,1,0,0
11,0,0,0,0,0,1017,454,1,0,0
12,0,0,0,0,0,708,440,1,0,0
13,0,0,0,0,0,387,455,1,0,0
14,0,0,0,0,3,405,441,1,0,0
15,0,0,0,0,0,429,455,1,0,0
0,0,0,0,0,0,439,440,1,0,0
1,0,0,0,0,0,434,455,1,0,0
2,0,0,0,0,3,451,440,1,0,0
3,0,0,0,0,0,448,455,1,0,0
4,0,0,0,0,0,466,441,1,0,0
5,0,0,0,0,0,462,454,1,0,0
6,0,0,0,0,3,480,441,1,0,0
7,0,0,0,0,0,477,454,1,0,0
8,0,0,0,0,0,493,441,1,0,0
9,0,0,0,0,0,492,455,1,0,0
10,0,0,0,0,3,511,441,1,0,0
11,0,0,0,0,0,509,459,1,0,0
12,0,0,0,0,0,523,441,1,0,0
13,0,0,0,0,0,519,460,1,0,0
14,0,0,0,0,0,533,446,1,0,0
15,0,0,0,0,0,525,464,1,0,0
0,0,0,0,0,0,536,450,1,0,0
1,0,0,0,0,0,529,467,1,0,0
2,0,0,0,0,3,540,452,1,0,0
3,0,0,0,0,0,520,467,1,0,0
4,0,0,0,0,0,517,453,1,0,0
5,0,0,0,0,0,492,470,1,0,0
6,0,0,0,0,3,490,455,1,0,0
7,0,0,0,0,0,474,469,1,0,0
8,0,0,0,0,0,480,456,1,0,0
9,0,0,0,0,0,476,467,1,0,0
10,0,0,0,0,3,489,449,1,0,0
11,0,0,0,0,0,484,459,1,0,0
12,0,0,0,0,0,496,443,1,0,0
13,0,0,0,0,0,491,455,1,0,0
14,0,0,0,0,3,500,437,1,0,0
15,0,0,0,0,0,494,451,1,0,0
0,0,0,0,0,0,502,435,1,0,0
1,0,0,0,0,0,496,451,1,0,0
2,0,0,0,0,3,506,434,1,0,0
3,0,0,0,0,0,499,446,1,0,0
4,0,0,0,0,0,510,432,1,0,0
5,0,0,0,0,0,505,446,1,0,0
6,0,0,0,0,3,515,432,1,0,0
7,0,0,0,0,0,508,447,1,0,0
8,0,0,0,0,0,518,432,1,0,0
9,0,0,0,0,0,505,446,1,0,0
10,0,0,0,0,3,515,432,1,0,0
11,0,0,0,0,0,501,446,1,0,0
12,0,0,0,0,0,507,430,1,0,0
13,0,0,0,0,0,498,443,1,0,0
14,0,0,0,0,3,505,428,1,0,0
15,0,0,0,0,0,494,440,1,0,0
0,0,0,0,0,0,501,429,1,0,0
1,0,0,0,0,0,491,442,1,0,0
2,0,0,0,0,3,501,429,1,0,0
3,0,0,0,0,0,491,442,1,0,0
4,0,0,0,0,0,502,429,1,0,0
5,0,0,0,0,0,496,444,1,0,0
6,0,0,0,0,3,504,432,1,0,0
7,0,0,0,0,0,500,443,1,0,0
8,0,0,0,0,0,513,430,1,0,0
9,0,0,0,0,0,508,444,1,0,0
10,0,0,0,0,1,519,431,1,0,0
11,0,0,0,0,0,509,444,1,0,0
12,0,0,0,0,0,526,431,1,0,0
13,0,0,0,0,0,510,443,1,0,0
14,0,0,0,0,3,528,429,1,0,0
15,0,0,0,0,0,527,443,1,0,0
0,0,0,0,0,0,536,431,1,0,0
1,0,0,0,0,0,525,443,1,0,0
2,0,0,0,0,3,533,430,1,0,0
3,0,0,0,0,0,521,443,1,0,0
4,0,0,0,0,0,523,431,1,0,0
5,0,0,0,0,0,518,446,1,0,0
6,0,0,0,0,3,523,435,1,0,0
7,0,0,0,0,0,513,452,1,0,0
8,0,0,0,0,0,484,444,1,0,0
9,0,0,0,0,0,462,458,1,0,0
10,0,0,0,0,3,564,448,1,0,0
11,0,0,0,0,0,885,465,1,0,0
12,0,0,0,0,0,960,457,1,0,0
13,0,0,0,0,0,540,472,1,0,0
14,0,0,0,0,3,383,461,1,0,0
15,0,0,0,0,0,427,476,1,0,0
0,0,0,0,0,0,447,466,1,0,0
1,0,0,0,0,0,440,480,1,0,0
2,0,0,0,0,3,453,472,1,0,0
3,0,0,0,0,0,453,486,2,0,0
4,0,0,0,0,0,467,476,2,0,0
5,0,0,0,0,0,465,490,2,0,0
6,0,0,0,0,3,481,481,1,0,0
7,0,0,0,0,0,486,493,2,0,0
8,0,0,0,0,0,500,484,2,0,0
9,0,0,0,0,0,503,497,2,0,0
10,0,0,0,0,3,519,488,1,0,0
11,0,0,0,0,0,520,500,2,0,0
12,0,0,0,0,0,536,491,2,0,0
13,0,0,0,0,0,538,503,2,0,0
14,0,0,0,0,3,550,493,1,0,0
15,0,0,0,0,0,543,505,2,0,0
0,0,0,0,0,0,551,494,2,0,0
1,0,0,0,0,0,544,504,2,0,0
2,0,0,0,0,3,550,493,1,0,0
3,0,0,0,0,0,536,503,2,0,0
4,0,0,0,0,0,529,489,2,0,0
5,0,0,0,0,0,505,500,2,0,0
6,0,0,0,0,1,493,486,1,0,0
7,0,0,0,0,0,473,497,2,0,0
8,0,0,0,0,0,472,484,2,0,0
9,0,0,0,0,0,465,493,2,0,0
10,0,0,0,0,3,471,479,1,0,0
11,0,0,0,0,0,465,489,2,0,0
12,0,0,0,0,0,478,475,2,0,0
13,0,0,0,0,0,477,486,1,0,0
14,0,0,0,0,3,487,471,1,0,0
15,0,0,0,0,0,487,483,1,0,0
0,0,0,0,0,0,496,470,2,0,0
1,0,0,0,0,0,496,480,2,0,0
2,0,0,0,0,3,503,467,1,0,0
3,0,0,0,0,0,500,479,1,0,0
4,0,0,0,0,0,508,465,2,0,0
5,0,0,0,0,0,504,478,2,0,0
6,0,0,0,0,3,511,465,1,0,0
7,0,0,0,0,0,506,477,2,0,0
8,0,0,0,0,0,513,463,1,0,0
9,0,0,0,0,0,504,474,1,0,0
10,0,0,0,0,3,507,464,1,0,0
11,0,0,0,0,0,498,476,2,0,0
12,0,0,0,0,0,504,463,1,0,0
13,0,0,0,0,0,498,474,1,0,0
14,0,0,0,0,3,505,463,1,0,0
15,0,0,0,0,0,500,474,1,0,0
0,0,0,0,0,0,510,463,2,0,0
1,0,0,0,0,0,508,473,1,0,0
2,0,0,0,0,3,512,460,1,0,0
3,0,0,0,0,0,508,472,1,0,0
4,0,0,0,0,0,515,461,1,0,0
5,0,0,0,0,0,508,470,1,0,0
6,0,0,0,0,3,514,459,1,0,0
7,0,0,0,0,0,506,470,1,0,0
8,0,0,0,0,0,511,459,1,0,0
9,0,0,0,0,0,503,472,1,0,0
10,0,0,0,0,3,508,459,1,0,0
11,0,0,0,0,0,501,472,1,0,0
12,0,0,0,0,0,502,459,1,0,0
13,0,0,0,0,0,499,470,1,0,0
14,0,0,0,0,3,504,458,1,0,0
15,0,0,0,0,0,500,472,1,0,0
0,0,0,0,0,0,518,460,1,0,0
1,0,0,0,0,0,516,471,1,0,0
2,0,0,0,0,0,516,459,1,0,0
3,0,0,0,0,0,510,470,1,0,0
4,0,0,0,0,0,511,459,1,0,0
5,0,0,0,0,0,503,468,2,0,0
6,0,0,0,0,3,508,457,1,0,0
7,0,0,0,0,0,501,469,1,0,0
8,0,0,0,0,0,511,458,1,0,0
9,0,0,0,0,0,485,469,1,0,0
10,0,0,0,0,3,465,460,1,0,0
11,0,0,0,0,0,515,471,1,0,0
12,0,0,0,0,0,769,460,1,0,0
13,0,0,0,0,0,1017,472,1,0,0
14,0,0,0,0,3,664,460,1,0,0
15,0,0,0,0,0,380,471,1,0,0
0,0,0,0,0,0,412,462,1,0,0
1,0,0,0,0,0,433,473,1,0,0
2,0,0,0,0,3,437,462,1,0,0
3,0,0,0,0,0,437,472,1,0,0
4,0,0,0,0,0,450,462,1,0,0
5,0,0,0,0,0,457,473,1,0,0
6,0,0,0,0,3,465,464,1,0,0
7,0,0,0,0,0,468,474,1,0,0
8,0,0,0,0,0,484,465,1,0,0
9,0,0,0,0,0,487,475,1,0,0
10,0,0,0,0,3,500,465,1,0,0
11,0,0,0,0,0,500,476,1,0,0
12,0,0,0,0,0,514,466,2,0,0
13,0,0,0,0,0,519,476,1,0,0
14,0,0,0,0,3,529,468,1,0,0
15,0,0,0,0,1,530,476,1,0,0
0,0,0,0,0,0,538,470,2,0,0
1,0,0,0,0,0,531,480,1,0,0
2,0,0,0,0,3,534,471,1,0,0
3,0,0,0,0,0,528,483,2,0,0
4,0,0,0,0,0,531,475,2,0,0
5,0,0,0,0,0,515,486,2,0,0
6,0,0,0,0,3,504,479,1,0,0
7,0,0,0,0,0,484,488,2,0,0
8,0,0,0,0,0,477,481,2,0,0
9,0,0,0,0,0,471,492,2,0,0
10,0,0,0,0,3,476,484,1,0,0
11,0,0,0,0,0,474,495,2,0,0
12,0,0,0,0,0,484,488,2,0,0
13,0,0,0,0,0,487,496,2,0,0
14,0,0,0,0,1,497,489,1,0,0
15,0,0,0,0,0,499,497,2,0,0
0,0,0,0,0,0,506,487,2,0,0
1,0,0,0,0,0,506,497,2,0,0
2,0,0,0,0,3,510,490,1,0,0
3,0,0,0,0,0,509,497,2,0,0
4,0,0,0,0,0,511,488,2,0,0
5,0,0,0,0,0,506,495,2,0,0
6,0,0,0,0,3,511,485,1,0,0
7,0,0,0,0,0,506,492,2,0,0
8,0,0,0,0,0,513,481,2,0,0
9,0,0,0,0,0,511,488,2,0,0
10,0,0,0,0,3,511,478,1,0,0
11,0,0,0,0,0,507,484,2,0,0
12,0,0,0,0,0,511,475,2,0,0
13,0,0,0,0,0,505,481,2,0,0
14,0,0,0,0,3,511,471,1,0,0
15,0,0,0,0,0,505,479,1,0,0
0,0,0,0,0,0,509,469,2,0,0
1,0,0,0,0,0,509,477,1,0,0
2,0,0,0,0,3,513,470,1,0,0
3,0,0,0,0,0,505,479,1,0,0
4,0,0,0,0,0,511,472,2,0,0
5,0,0,0,0,0,507,480,1,0,0
6,0,0,0,0,3,511,472,1,0,0
7,0,0,0,0,0,511,480,2,0,0
8,0,0,0,0,0,516,473,2,0,0
9,0,0,0,0,0,515,482,2,0,0
10,0,0,0,0,3,523,476,1,0,0
11,0,0,0,0,0,516,484,2,0,0
12,0,0,0,0,0,521,476,2,0,0
13,0,0,0,0,0,519,486,2,0,0
14,0,0,0,0,3,519,479,1,0,0
15,0,0,0,0,0,511,486,2,0,0
0,0,0,0,0,0,522,480,2,0,0
1,0,0,0,0,0,509,487,2,0,0
2,0,0,0,0,3,520,480,1,0,0
3,0,0,0,0,0,526,487,2,0,0
4,0,0,0,0,0,524,478,2,0,0
5,0,0,0,0,0,517,486,2,0,0
6,0,0,0,0,3,518,477,1,0,0
7,0,0,0,0,0,508,484,2,0,0
8,0,0,0,0,0,508,476,2,0,0
9,0,0,0,0,0,507,483,1,0,0
10,0,0,0,0,1,508,476,1,0,0
11,0,0,0,0,0,501,482,2,0,0
12,0,0,0,0,0,463,475,2,0,0
13,0,0,0,0,0,454,483,2,0,0
14,0,0,0,0,3,600,476,1,0,0
15,0,0,0,0,0,964,483,1,0,0
0,0,0,0,0,0,880,476,2,0,0
1,0,0,0,0,0,460,483,1,0,0
2,0,0,0,0,3,378,475,1,0,0
3,0,0,0,0,0,425,481,2,0,0
4,0,0,0,0,0,432,475,2,0,0
5,0,0,0,0,0,435,482,2,0,0
6,0,0,0,0,3,443,475,1,0,0
7,0,0,0,0,0,451,483,1,0,0
8,0,0,0,0,0,462,475,2,0,0
9,0,0,0,0,0,467,483,1,0,0
10,0,0,0,0,3,478,476,1,0,0
11,0,0,0,0,0,481,483,1,0,0
12,0,0,0,0,0,489,476,2,0,0
13,0,0,0,0,0,494,482,2,0,0
14,0,0,0,0,0,504,474,1,0,0
15,0,0,0,0,0,510,484,1,0,0
0,0,0,0,0,0,520,475,2,0,0
1,0,0,0,0,0,525,483,1,0,0
2,0,0,0,0,3,533,476,1,0,0
3,0,0,0,0,0,534,483,1,0,0
4,0,0,0,0,0,538,475,2,0,0
5,0,0,0,0,0,534,481,2,0,0
6,0,0,0,0,3,537,473,1,0,0
7,0,0,0,0,0,526,481,1,0,0
8,0,0,0,0,0,509,473,2,0,0
9,0,0,0,0,0,490,480,1,0,0
10,0,0,0,0,3,477,474,1,0,0
11,0,0,0,0,0,464,479,2,0,0
12,0,0,0,0,0,462,474,2,0,0
13,0,0,0,0,0,462,479,1,0,0
14,0,0,0,0,3,464,474,1,0,0
15,0,0,0,0,0,468,480,1,0,0
0,0,0,0,0,0,473,473,2,0,0
1,0,0,0,0,0,479,479,1,0,0
2,0,0,0,0,3,484,472,1,0,0
3,0,0,0,0,0,487,478,1,0,0
4,0,0,0,0,0,496,471,2,0,0
5,0,0,0,0,0,498,477,1,0,0
6,0,0,0,0,3,500,470,1,0,0
7,0,0,0,0,1,500,478,1,0,0
8,0,0,0,0,0,502,471,2,0,0
9,0,0,0,0,0,503,478,1,0,0
10,0,0,0,0,3,508,474,1,0,0
11,0,0,0,0,0,507,479,1,0,0
12,0,0,0,0,0,510,475,2,0,0
13,0,0,0,0,0,513,482,1,0,0
14,0,0,0,0,3,513,475,1,0,0
15,0,0,0,0,0,515,481,2,0,0
0,0,0,0,0,0,516,475,2,0,0
1,0,0,0,0,0,518,480,1,0,0
2,0,0,0,0,3,517,474,1,0,0
3,0,0,0,0,0,515,480,2,0,0
4,0,0,0,0,0,515,474,2,0,0
5,0,0,0,0,0,516,479,2,0,0
6,0,0,0,0,3,518,471,1,0,0
7,0,0,0,0,0,515,479,1,0,0
8,0,0,0,0,0,515,472,2,0,0
9,0,0,0,0,0,515,479,1,0,0
10,0,0,0,0,0,513,474,1,0,0
11,0,0,0,0,0,509,479,2,0,0
12,0,0,0,0,0,509,474,2,0,0
13,0,0,0,0,0,511,479,1,0,0
14,0,0,0,0,3,512,473,1,0,0
15,0,0,0,0,0,513,478,2,0,0
0,0,0,0,0,0,516,473,2,0,0
1,0,0,0,0,0,509,478,2,0,0
2,0,0,0,0,3,508,472,1,0,0
3,0,0,0,0,0,512,477,1,0,0
4,0,0,0,0,0,508,472,2,0,0
5,0,0,0,0,0,520,478,1,0,0
6,0,0,0,0,3,523,472,1,0,0
7,0,0,0,0,0,520,478,1,0,0
8,0,0,0,0,0,521,473,2,0,0
9,0,0,0,0,0,520,477,1,0,0
10,0,0,0,0,3,514,470,1,0,0
11,0,0,0,0,0,512,474,1,0,0
12,0,0,0,0,0,512,470,2,0,0
13,0,0,0,0,0,512,472,1,0,0
14,0,0,0,0,3,498,463,1,0,0
15,0,0,0,0,0,468,465,1,0,0
0,0,0,0,0,0,497,454,1,0,0
1,0,0,0,0,0,711,457,1,0,0
2,0,0,0,0,3,1022,450,1,0,0
3,0,0,0,0,0,726,453,1,0,0
4,0,0,0,0,0,394,444,1,0,0
5,0,0,0,0,0,390,446,1,0,0
6,0,0,0,0,3,428,442,1,0,0
7,0,0,0,0,0,431,447,1,0,0
8,0,0,0,0,0,438,439,1,0,0
9,0,0,0,0,0,448,444,1,0,0
10,0,0,0,0,3,458,439,1,0,0
11,0,0,0,0,0,468,442,1,0,0
12,0,0,0,0,0,472,444,1,0,0
13,0,0,0,0,0,477,455,1,0,0
14,0,0,0,0,3,484,452,1,0,0
15,0,0,0,0,1,496,460,1,0,0
0,0,0,0,0,0,505,455,1,0,0
1,0,0,0,0,0,511,459,1,0,0
2,0,0,0,0,3,522,455,1,0,0
3,0,0,0,0,0,531,459,1,0,0
4,0,0,0,0,0,539,454,1,0,0
5,0,0,0,0,0,546,458,1,0,0
6,0,0,0,0,1,545,452,1,0,0
7,0,0,0,0,0,544,456,1,0,0
8,0,0,0,0,0,536,451,1,0,0
9,0,0,0,0,0,531,456,1,0,0
10,0,0,0,0,3,517,449,1,0,0
11,0,0,0,0,0,497,454,1,0,0
12,0,0,0,0,0,480,446,1,0,0
13,0,0,0,0,0,468,448,1,0,0
14,0,0,0,0,3,455,443,1,0,0
15,0,0,0,0,0,451,446,1,0,0
0,0,0,0,0,0,452,440,1,0,0
1,0,0,0,0,0,459,443,1,0,0
2,0,0,0,0,3,464,438,1,0,0
3,0,0,0,0,0,467,441,1,0,0
4,0,0,0,0,0,472,435,1,0,0
5,0,0,0,0,0,480,440,1,0,0
6,0,0,0,0,3,482,437,1,0,0
7,0,0,0,0,0,484,440,1,0,0
8,0,0,0,0,0,489,435,1,0,0
9,0,0,0,0,0,497,440,1,0,0
10,0,0,0,0,3,505,434,1,0,0
11,0,0,0,0,0,509,438,1,0,0
12,0,0,0,0,0,508,433,1,0,0
13,0,0,0,0,0,505,438,1,0,0
14,0,0,0,0,3,504,435,1,0,0
15,0,0,0,0,0,504,437,1,0,0
0,0,0,0,0,0,494,436,1,0,0
1,0,0,0,0,0,493,440,1,0,0
2,0,0,0,0,3,490,436,1,0,0
3,0,0,0,0,0,495,439,1,0,0
4,0,0,0,0,0,503,434,1,0,0
5,0,0,0,0,0,511,439,1,0,0
6,0,0,0,0,3,520,436,1,0,0
7,0,0,0,0,0,527,438,1,0,0
8,0,0,0,0,0,530,434,1,0,0
9,0,0,0,0,0,534,438,1,0,0
10,0,0,0,0,3,538,433,1,0,0
11,0,0,0,0,0,542,437,1,0,0
12,0,0,0,0,0,544,433,1,0,0
13,0,0,0,0,0,543,436,1,0,0
14,0,0,0,0,3,535,434,1,0,0
15,0,0,0,0,0,527,436,1,0,0
0,0,0,0,0,0,513,435,1,0,0
1,0,0,0,0,0,507,438,1,0,0
2,0,0,0,0,0,494,434,1,0,0
3,0,0,0,0,0,485,440,1,0,0
4,0,0,0,0,0,487,435,1,0,0
5,0,0,0,0,0,487,438,1,0,0
6,0,0,0,0,3,500,435,1,0,0
7,0,0,0,0,0,511,438,1,0,0
8,0,0,0,0,0,509,435,1,0,0
9,0,0,0,0,0,512,438,1,0,0
10,0,0,0,0,3,504,434,1,0,0
11,0,0,0,0,0,504,438,1,0,0
12,0,0,0,0,0,501,435,1,0,0
13,0,0,0,0,0,506,439,1,0,0
14,0,0,0,0,3,504,436,1,0,0
15,0,0,0,0,0,499,438,1,0,0
0,0,0,0,0,0,459,435,1,0,0
1,0,0,0,0,0,469,438,1,0,0
2,0,0,0,0,3,643,437,1,0,0
3,0,0,0,0,0,1000,440,1,0,0
4,0,0,0,0,0,788,438,1,0,0
5,0,0,0,0,0,409,440,1,0,0
6,0,0,0,0,3,364,437,1,0,0
7,0,0,0,0,1,414,441,1,0,0
8,0,0,0,0,0,418,440,1,0,0
9,0,0,0,0,0,426,443,1,0,0
10,0,0,0,0,3,433,442,1,0,0
11,0,0,0,0,0,448,446,1,0,0
12,0,0,0,0,0,458,446,1,0,0
13,0,0,0,0,0,472,448,1,0,0
14,0,0,0,0,3,480,448,1,0,0
15,0,0,0,0,0,496,451,1,0,0
0,0,0,0,0,0,505,450,1,0,0
1,0,0,0,0,0,521,452,1,0,0
2,0,0,0,0,3,527,451,1,0,0
3,0,0,0,0,0,536,455,1,0,0
4,0,0,0,0,0,543,454,1,0,0
5,0,0,0,0,0,553,459,1,0,0
6,0,0,0,0,3,555,457,1,0,0
7,0,0,0,0,0,563,459,1,0,0
8,0,0,0,0,0,563,457,1,0,0
9,0,0,0,0,0,566,457,1,0,0
10,0,0,0,0,3,563,454,1,0,0
11,0,0,0,0,0,554,454,1,0,0
12,0,0,0,0,0,534,451,1,0,0
13,0,0,0,0,1,521,449,1,0,0
14,0,0,0,0,1,501,447,1,0,0
15,0,0,0,0,0,494,446,1,0,0
0,0,0,0,0,0,486,444,1,0,0
1,0,0,0,0,0,488,444,1,0,0
2,0,0,0,0,3,484,442,1,0,0
3,0,0,0,0,0,492,441,1,0,0
4,0,0,0,0,0,492,444,1,0,0
5,0,0,0,0,0,497,440,1,0,0
6,0,0,0,0,3,491,439,1,0,0
7,0,0,0,0,0,496,440,1,0,0
8,0,0,0,0,0,495,437,1,0,0
9,0,0,0,0,0,498,438,1,0,0
10,0,0,0,0,3,496,438,1,0,0
11,0,0,0,0,0,503,439,1,0,0
12,0,0,0,0,0,499,437,1,0,0
13,0,0,0,0,0,506,438,1,0,0
14,0,0,0,0,3,501,440,1,0,0
15,0,0,0,0,0,505,439,1,0,0
0,0,0,0,0,0,502,437,1,0,0
1,0,0,0,0,0,507,439,1,0,0
2,0,0,0,0,3,505,436,1,0,0
3,0,0,0,0,0,508,437,1,0,0
4,0,0,0,0,0,507,436,1,0,0
5,0,0,0,0,0,510,438,1,0,0
6,0,0,0,0,3,508,440,1,0,0
7,0,0,0,0,0,511,439,1,0,0
8,0,0,0,0,0,508,440,1,0,0
9,0,0,0,0,0,514,441,1,0,0
10,0,0,0,0,3,505,439,1,0,0
11,0,0,0,0,0,513,439,1,0,0
12,0,0,0,0,0,513,438,1,0,0
13,0,0,0,0,0,512,439,1,0,0
14,0,0,0,0,3,510,438,1,0,0
15,0,0,0,0,0,513,438,1,0,0
0,0,0,0,0,0,507,439,1,0,0
1,0,0,0,0,0,515,439,1,0,0
2,0,0,0,0,3,502,440,1,0,0
3,0,0,0,0,1,515,438,1,0,0
4,0,0,0,0,0,515,441,1,0,0
5,0,0,0,0,0,517,443,1,0,0
6,0,0,0,0,3,514,443,1,0,0
7,0,0,0,0,0,516,444,1,0,0
8,0,0,0,0,0,509,445,1,0,0
9,0,0,0,0,0,512,444,1,0,0
10,0,0,0,0,0,511,446,1,0,0
11,0,0,0,0,0,516,446,1,0,0
12,0,0,0,0,0,501,448,1,0,0
13,0,0,0,0,0,465,447,1,0,0
14,0,0,0,0,3,470,448,1,0,0
15,0,0,0,0,0,643,448,1,0,0
0,0,0,0,0,0,1007,449,1,0,0
1,0,0,0,0,0,852,448,1,0,0
2,0,0,0,0,3,435,450,1,0,0
3,0,0,0,0,0,374,449,1,0,0
4,0,0,0,0,0,424,449,1,0,0
5,0,0,0,0,0,439,449,1,0,0
6,0,0,0,0,3,435,450,1,0,0
7,0,0,0,0,0,447,450,1,0,0
8,0,0,0,0,0,455,452,1,0,0
9,0,0,0,0,0,471,449,1,0,0
10,0,0,0,0,3,475,450,1,0,0
11,0,0,0,0,0,487,447,1,0,0
12,0,0,0,0,0,491,448,1,0,0
13,0,0,0,0,0,504,447,1,0,0
14,0,0,0,0,3,504,448,1,0,0
15,0,0,0,0,0,518,446,1,0,0
0,0,0,0,0,0,517,449,1,0,0
1,0,0,0,0,0,531,447,1,0,0
2,0,0,0,0,3,532,449,1,0,0
3,0,0,0,0,0,544,448,1,0,0
4,0,0,0,0,0,543,449,1,0,0
5,0,0,0,0,0,549,447,1,0,0
6,0,0,0,0,3,540,450,1,0,0
7,0,0,0,0,0,542,447,1,0,0
8,0,0,0,0,0,522,448,1,0,0
9,0,0,0,0,0,511,447,1,0,0
10,0,0,0,0,3,488,448,1,0,0
11,0,0,0,0,0,475,445,1,0,0
12,0,0,0,0,0,461,447,1,0,0
13,0,0,0,0,0,462,444,1,0,0
14,0,0,0,0,3,458,446,1,0,0
15,0,0,0,0,0,464,444,1,0,0
0,0,0,0,0,0,460,446,1,0,0
1,0,0,0,0,0,472,444,1,0,0
2,0,0,0,0,3,469,448,1,0,0
3,0,0,0,0,0,479,443,1,0,0
4,0,0,0,0,0,478,446,1,0,0
5,0,0,0,0,0,488,444,1,0,0
6,0,0,0,0,1,487,448,1,0,0
7,0,0,0,0,0,500,446,1,0,0
8,0,0,0,0,0,497,447,1,0,0
9,0,0,0,0,0,508,447,1,0,0
10,0,0,0,0,3,505,449,1,0,0
11,0,0,0,0,0,515,448,1,0,0
12,0,0,0,0,0,511,449,1,0,0
13,0,0,0,0,0,517,447,1,0,0
14,0,0,0,0,3,512,451,1,0,0
15,0,0,0,0,0,516,449,1,0,0
0,0,0,0,0,0,507,452,1,0,0
1,0,0,0,0,0,511,449,1,0,0
2,0,0,0,0,3,504,452,1,0,0
3,0,0,0,0,0,511,448,1,0,0
4,0,0,0,0,0,506,452,1,0,0
5,0,0,0,0,0,514,448,1,0,0
6,0,0,0,0,3,508,450,1,0,0
7,0,0,0,0,0,518,446,1,0,0
8,0,0,0,0,0,511,448,1,0,0
9,0,0,0,0,0,518,444,1,0,0
10,0,0,0,0,0,510,447,1,0,0
11,0,0,0,0,0,516,443,1,0,0
12,0,0,0,0,0,503,447,1,0,0
13,0,0,0,0,0,513,444,1,0,0
14,0,0,0,0,3,502,448,1,0,0
15,0,0,0,0,0,507,444,1,0,0
0,0,0,0,0,0,513,446,1,0,0
1,0,0,0,0,0,521,443,1,0,0
2,0,0,0,0,3,512,447,1,0,0
3,0,0,0,0,0,523,444,1,0,0
4,0,0,0,0,0,513,447,1,0,0
5,0,0,0,0,0,518,444,1,0,0
6,0,0,0,0,3,510,447,1,0,0
7,0,0,0,0,0,519,442,1,0,0
8,0,0,0,0,0,510,448,1,0,0
9,0,0,0,0,0,494,445,1,0,0
10,0,0,0,0,3,466,448,1,0,0
11,0,0,0,0,0,537,445,1,0,0
12,0,0,0,0,0,811,447,1,0,0
13,0,0,0,0,0,1022,444,1,0,0
14,0,0,0,0,3,624,448,1,0,0
15,0,0,0,0,0,379,443,1,0,0
0,0,0,0,0,0,414,448,1,0,0
1,0,0,0,0,0,440,444,1,0,0
2,0,0,0,0,3,433,448,1,0,0
3,0,0,0,0,0,444,444,1,0,0
4,0,0,0,0,0,443,448,1,0,0
5,0,0,0,0,0,458,444,1,0,0
6,0,0,0,0,3,457,446,1,0,0
7,0,0,0,0,0,470,443,1,0,0
8,0,0,0,0,0,468,448,1,0,0
9,0,0,0,0,0,481,443,1,0,0
10,0,0,0,0,3,482,448,1,0,0
11,0,0,0,0,0,502,444,1,0,0
12,0,0,0,0,0,502,449,1,0,0
13,0,0,0,0,0,516,445,1,0,0
14,0,0,0,0,3,520,451,1,0,0
15,0,0,0,0,0,539,445,1,0,0
0,0,0,0,0,0,536,451,1,0,0
1,0,0,0,0,0,549,446,1,0,0
2,0,0,0,0,3,536,452,1,0,0
3,0,0,0,0,0,543,448,1,0,0
4,0,0,0,0,0,530,453,1,0,0
5,0,0,0,0,1,521,448,1,0,0
6,0,0,0,0,0,492,454,1,0,0
7,0,0,0,0,0,483,448,1,0,0
8,0,0,0,0,0,465,454,1,0,0
9,0,0,0,0,0,467,449,1,0,0
10,0,0,0,0,3,457,455,1,0,0
11,0,0,0,0,0,470,448,1,0,0
12,0,0,0,0,0,463,454,1,0,0
13,0,0,0,0,0,480,448,1,0,0
14,0,0,0,0,3,479,452,1,0,0
15,0,0,0,0,0,493,448,1,0,0
0,0,0,0,0,0,487,452,1,0,0
1,0,0,0,0,0,496,447,1,0,0
2,0,0,0,0,3,491,453,1,0,0
3,0,0,0,0,0,503,445,1,0,0
4,0,0,0,0,0,497,451,1,0,0
5,0,0,0,0,0,508,444,1,0,0
6,0,0,0,0,3,499,450,1,0,0
7,0,0,0,0,1,511,444,1,0,0
8,0,0,0,0,0,510,450,1,0,0
9,0,0,0,0,0,519,445,1,0,0
10,0,0,0,0,3,511,450,1,0,0
11,0,0,0,0,0,518,445,1,0,0
12,0,0,0,0,0,507,453,1,0,0
13,0,0,0,0,0,516,446,1,0,0
14,0,0,0,0,3,509,452,1,0,0
15,0,0,0,0,0,518,446,1,0,0
0,0,0,0,0,0,510,451,1,0,0
1,0,0,0,0,0,521,446,1,0,0
2,0,0,0,0,3,510,452,1,0,0
3,0,0,0,0,1,519,445,1,0,0
4,0,0,0,0,0,508,453,1,0,0
5,0,0,0,0,0,516,445,1,0,0
6,0,0,0,0,3,504,451,1,0,0
7,0,0,0,0,0,513,444,1,0,0
8,0,0,0,0,0,499,452,1,0,0
9,0,0,0,0,0,511,445,1,0,0
10,0,0,0,0,3,494,452,1,0,0
11,0,0,0,0,0,508,445,1,0,0
12,0,0,0,0,0,511,452,1,0,0
13,0,0,0,0,0,525,445,1,0,0
14,0,0,0,0,3,514,452,1,0,0
15,0,0,0,0,1,523,447,1,0,0
0,0,0,0,0,0,510,453,1,0,0
1,0,0,0,0,0,513,446,1,0,0
2,0,0,0,0,1,506,452,1,0,0
3,0,0,0,0,0,519,445,1,0,0
4,0,0,0,0,0,505,451,1,0,0
5,0,0,0,0,1,486,444,1,0,0
6,0,0,0,0,3,460,452,1,0,0
7,0,0,0,0,0,536,444,1,0,0
8,0,0,0,0,0,814,453,1,0,0
9,0,0,0,0,0,1015,445,1,0,0
10,0,0,0,0,3,602,451,1,0,0
11,0,0,0,0,0,373,443,1,0,0
12,0,0,0,0,0,407,453,1,0,0
13,0,0,0,0,0,434,444,1,0,0
14,0,0,0,0,3,425,451,1,0,0
15,0,0,0,0,0,443,444,1,0,0
0,0,0,0,0,0,439,452,1,0,0
1,0,0,0,0,1,460,444,1,0,0
2,0,0,0,0,3,460,454,1,0,0
3,0,0,0,0,0,478,445,1,0,0
4,0,0,0,0,0,477,453,1,0,0
5,0,0,0,0,0,496,446,1,0,0
6,0,0,0,0,3,495,454,1,0,0
7,0,0,0,0,0,510,444,1,0,0
8,0,0,0,0,0,508,453,1,0,0
9,0,0,0,0,0,526,444,1,0,0
10,0,0,0,0,3,523,453,1,0,0
11,0,0,0,0,1,540,444,1,0,0
12,0,0,0,0,0,533,454,1,0,0
13,0,0,0,0,0,546,447,1,0,0
14,0,0,0,0,3,534,455,1,0,0
15,0,0,0,0,0,543,448,1,0,0
0,0,0,0,0,0,525,455,1,0,0
1,0,0,0,0,0,521,448,1,0,0
2,0,0,0,0,3,491,456,1,0,0
3,0,0,0,0,1,484,447,1,0,0
4,0,0,0,0,0,463,455,1,0,0
5,0,0,0,0,0,470,446,1,0,0
6,0,0,0,0,3,460,455,1,0,0
7,0,0,0,0,0,473,443,1,0,0
8,0,0,0,0,0,467,452,1,0,0
9,0,0,0,0,0,483,442,1,0,0
10,0,0,0,0,3,476,450,1,0,0
11,0,0,0,0,0,492,441,1,0,0
12,0,0,0,0,0,482,449,1,0,0
13,0,0,0,0,0,499,440,1,0,0
14,0,0,0,0,1,492,449,1,0,0
15,0,0,0,0,1,508,441,1,0,0
0,0,0,0,0,0,497,451,1,0,0
1,0,0,0,0,0,509,442,1,0,0
2,0,0,0,0,3,499,449,1,0,0
3,0,0,0,0,0,511,441,1,0,0
4,0,0,0,0,0,502,451,1,0,0
5,0,0,0,0,0,517,442,1,0,0
6,0,0,0,0,3,509,451,1,0,0
7,0,0,0,0,0,518,443,1,0,0
8,0,0,0,0,0,504,451,1,0,0
9,0,0,0,0,0,520,442,1,0,0
10,0,0,0,0,3,505,452,1,0,0
11,0,0,0,0,0,518,443,1,0,0
12,0,0,0,0,0,508,453,1,0,0
13,0,0,0,0,0,519,444,1,0,0
14,0,0,0,0,3,504,454,1,0,0
15,0,0,0,0,0,520,447,1,0,0
0,0,0,0,0,0,502,457,1,0,0
1,0,0,0,0,1,516,447,1,0,0
2,0,0,0,0,3,506,458,1,0,0
3,0,0,0,0,0,518,448,1,0,0
4,0,0,0,0,0,507,457,1,0,0
5,0,0,0,0,0,516,448,1,0,0
6,0,0,0,0,3,509,460,1,0,0
7,0,0,0,0,0,515,448,1,0,0
8,0,0,0,0,0,505,458,1,0,0
9,0,0,0,0,0,527,449,1,0,0
10,0,0,0,0,3,518,460,1,0,0
11,0,0,0,0,0,527,449,1,0,0
12,0,0,0,0,0,515,461,1,0,0
13,0,0,0,0,0,522,449,1,0,0
14,0,0,0,0,3,510,460,1,0,0
15,0,0,0,0,0,525,449,1,0,0
0,0,0,0,0,0,511,460,1,0,0
1,0,0,0,0,0,527,448,1,0,0
2,0,0,0,0,3,478,459,1,0,0
3,0,0,0,0,0,478,450,1,0,0
4,0,0,0,0,0,544,457,1,0,0
5,0,0,0,0,0,850,448,1,0,0
6,0,0,0,0,3,990,459,1,0,0
7,0,0,0,0,0,615,449,1,0,0
8,0,0,0,0,0,362,461,1,0,0
9,0,0,0,0,0,398,451,1,0,0
10,0,0,0,0,1,429,464,1,0,0
11,0,0,0,0,0,448,453,1,0,0
12,0,0,0,0,0,440,464,1,0,0
13,0,0,0,0,0,464,454,1,0,0
14,0,0,0,0,3,463,465,1,0,0
15,0,0,0,0,1,480,451,1,0,0
0,0,0,0,0,0,477,464,2,0,0
1,0,0,0,0,0,499,453,1,0,0
2,0,0,0,0,3,495,464,1,0,0
3,0,0,0,0,0,514,452,1,0,0
4,0,0,0,0,0,506,464,2,0,0
5,0,0,0,0,0,528,451,1,0,0
6,0,0,0,0,3,520,464,1,0,0
7,0,0,0,0,0,541,452,1,0,0
8,0,0,0,0,0,536,465,1,0,0
9,0,0,0,0,0,551,453,1,0,0
10,0,0,0,0,3,539,465,1,0,0
11,0,0,0,0,1,549,452,1,0,0
12,0,0,0,0,0,531,466,2,0,0
13,0,0,0,0,0,535,454,1,0,0
14,0,0,0,0,3,501,464,1,0,0
15,0,0,0,0,0,496,451,1,0,0
0,0,0,0,0,0,467,464,1,0,0
1,0,0,0,0,0,467,452,1,0,0
2,0,0,0,0,3,447,464,1,0,0
3,0,0,0,0,0,463,452,1,0,0
4,0,0,0,0,0,454,464,1,0,0
5,0,0,0,0,0,472,452,1,0,0
6,0,0,0,0,3,463,465,1,0,0
7,0,0,0,0,0,484,453,1,0,0
8,0,0,0,0,0,475,465,1,0,0
9,0,0,0,0,0,495,455,1,0,0
10,0,0,0,0,3,486,466,1,0,0
11,0,0,0,0,0,507,455,1,0,0
12,0,0,0,0,0,495,467,2,0,0
13,0,0,0,0,0,511,454,1,0,0
14,0,0,0,0,3,502,466,1,0,0
15,0,0,0,0,0,517,454,1,0,0
0,0,0,0,0,0,504,466,1,0,0
1,0,0,0,0,0,519,453,1,0,0
2,0,0,0,0,3,508,466,1,0,0
3,0,0,0,0,0,523,454,1,0,0
4,0,0,0,0,0,507,466,1,0,0
5,0,0,0,0,0,521,453,1,0,0
6,0,0,0,0,1,506,464,1,0,0
7,0,0,0,0,0,517,451,1,0,0
8,0,0,0,0,0,502,462,1,0,0
9,0,0,0,0,1,516,450,1,0,0
10,0,0,0,0,3,505,465,1,0,0
11,0,0,0,0,0,519,451,1,0,0
12,0,0,0,0,0,510,464,1,0,0
13,0,0,0,0,0,526,451,1,0,0
14,0,0,0,0,3,515,463,1,0,0
15,0,0,0,0,0,534,449,1,0,0
0,0,0,0,0,0,516,461,1,0,0
1,0,0,0,0,0,531,446,1,0,0
2,0,0,0,0,3,517,459,1,0,0
3,0,0,0,0,0,524,447,1,0,0
4,0,0,0,0,0,512,460,1,0,0
5,0,0,0,0,0,516,447,1,0,0
6,0,0,0,0,3,499,460,1,0,0
7,0,0,0,0,0,524,446,1,0,0
8,0,0,0,0,0,507,459,1,0,0
9,0,0,0,0,0,519,445,1,0,0
10,0,0,0,0,3,503,458,1,0,0
11,0,0,0,0,1,514,444,1,0,0
12,0,0,0,0,0,497,460,1,0,0
13,0,0,0,0,0,511,447,1,0,0
14,0,0,0,0,3,499,463,1,0,0
15,0,0,0,0,0,514,449,1,0,0
0,0,0,0,0,0,481,464,1,0,0
1,0,0,0,0,0,480,450,1,0,0
2,0,0,0,0,3,529,465,1,0,0
3,0,0,0,0,0,814,451,1,0,0
4,0,0,0,0,0,1022,465,1,0,0
5,0,0,0,0,0,655,450,1,0,0
6,0,0,0,0,3,360,463,1,0,0
7,0,0,0,0,1,408,449,1,0,0
8,0,0,0,0,0,417,463,1,0,0
9,0,0,0,0,0,430,450,1,0,0
10,0,0,0,0,3,420,463,1,0,0
11,0,0,0,0,0,442,451,1,0,0
12,0,0,0,0,0,438,465,2,0,0
13,0,0,0,0,0,462,451,1,0,0
14,0,0,0,0,3,454,467,1,0,0
15,0,0,0,0,0,477,451,1,0,0
0,0,0,0,0,0,471,467,2,0,0
1,0,0,0,0,0,497,453,1,0,0
2,0,0,0,0,0,491,466,1,0,0
3,0,0,0,0,0,516,452,1,0,0
4,0,0,0,0,0,513,467,1,0,0
5,0,0,0,0,0,537,453,1,0,0
6,0,0,0,0,3,533,466,1,0,0
7,0,0,0,0,0,551,452,1,0,0
8,0,0,0,0,0,539,467,2,0,0
9,0,0,0,0,0,551,452,1,0,0
10,0,0,0,0,3,532,466,1,0,0
11,0,0,0,0,0,537,451,1,0,0
12,0,0,0,0,0,504,466,2,0,0
13,0,0,0,0,0,502,451,1,0,0
14,0,0,0,0,3,468,466,1,0,0
15,0,0,0,0,0,474,450,1,0,0
0,0,0,0,0,0,455,466,2,0,0
1,0,0,0,0,0,470,450,1,0,0
2,0,0,0,0,3,458,465,1,0,0
3,0,0,0,0,0,474,449,1,0,0
4,0,0,0,0,0,460,464,2,0,0
5,0,0,0,0,1,479,448,1,0,0
6,0,0,0,0,1,467,463,1,0,0
7,0,0,0,0,0,488,447,1,0,0
8,0,0,0,0,0,474,460,1,0,0
9,0,0,0,0,0,492,446,1,0,0
10,0,0,0,0,3,482,462,1,0,0
11,0,0,0,0,0,503,446,1,0,0
12,0,0,0,0,0,490,461,1,0,0
13,0,0,0,0,0,511,448,1,0,0
14,0,0,0,0,3,496,463,1,0,0
15,0,0,0,0,0,514,448,1,0,0
0,0,0,0,0,0,494,463,1,0,0
1,0,0,0,0,0,507,448,1,0,0
2,0,0,0,0,3,488,466,1,0,0
3,0,0,0,0,0,505,451,1,0,0
4,0,0,0,0,0,491,467,1,0,0
5,0,0,0,0,0,512,454,1,0,0
6,0,0,0,0,3,501,469,1,0,0
7,0,0,0,0,1,518,455,1,0,0
8,0,0,0,0,0,506,471,2,0,0
9,0,0,0,0,0,530,455,1,0,0
10,0,0,0,0,3,518,470,1,0,0
11,0,0,0,0,0,538,453,1,0,0
12,0,0,0,0,0,530,468,2,0,0
13,0,0,0,0,0,549,449,1,0,0
14,0,0,0,0,3,538,467,1,0,0
15,0,0,0,0,0,557,448,1,0,0
0,0,0,0,0,0,540,467,1,0,0
1,0,0,0,0,0,548,452,1,0,0
2,0,0,0,0,3,524,471,1,0,0
3,0,0,0,0,1,535,457,1,0,0
4,0,0,0,0,0,510,476,2,0,0
5,0,0,0,0,0,537,463,1,0,0
6,0,0,0,0,3,521,482,1,0,0
7,0,0,0,0,0,529,470,1,0,0
8,0,0,0,0,0,518,488,2,0,0
9,0,0,0,0,0,532,475,1,0,0
10,0,0,0,0,3,514,493,1,0,0
11,0,0,0,0,0,529,479,2,0,0
12,0,0,0,0,0,513,497,2,0,0
13,0,0,0,0,0,528,483,2,0,0
14,0,0,0,0,3,491,500,1,0,0
15,0,0,0,0,0,483,486,2,0,0
0,0,0,0,0,0,515,503,2,0,0
1,0,0,0,0,0,785,491,2,0,0
2,0,0,0,0,1,1021,508,1,0,0
3,0,0,0,0,0,696,494,2,0,0
4,0,0,0,0,0,382,511,2,0,0
5,0,0,0,0,1,412,495,1,0,0
6,0,0,0,0,3,427,513,1,0,0
7,0,0,0,0,0,444,496,2,0,0
8,0,0,0,0,0,433,512,2,0,0
9,0,0,0,0,0,460,495,2,0,0
10,0,0,0,0,3,450,510,2,0,0
11,0,0,0,0,0,472,492,2,0,0
12,0,0,0,0,0,465,508,2,0,0
13,0,0,0,0,0,487,489,2,0,0
14,0,0,0,0,3,476,505,2,0,0
15,0,0,0,0,0,502,487,2,0,0
0,0,0,0,0,0,488,505,2,0,0
1,0,0,0,0,0,515,485,1,0,0
2,0,0,0,0,3,503,502,2,0,0
3,0,0,0,0,0,530,485,2,0,0
4,0,0,0,0,0,519,500,2,0,0
5,0,0,0,0,0,545,485,2,0,0
6,0,0,0,0,3,531,499,2,0,0
7,0,0,0,0,0,549,482,2,0,0
8,0,0,0,0,0,529,500,2,0,0
9,0,0,0,0,0,536,483,2,0,0
10,0,0,0,0,3,499,499,1,0,0
11,0,0,0,0,0,492,483,1,0,0
12,0,0,0,0,0,460,502,2,0,0
13,0,0,0,0,0,463,484,2,0,0
14,0,0,0,0,3,441,504,2,0,0
15,0,0,0,0,0,461,487,2,0,0
0,0,0,0,0,0,447,504,2,0,0
1,0,0,0,0,0,468,488,2,0,0
2,0,0,0,0,3,455,507,2,0,0
3,0,0,0,0,0,480,491,1,0,0
4,0,0,0,0,0,472,510,2,0,0
5,0,0,0,0,0,498,493,2,0,0
6,0,0,0,0,3,487,510,2,0,0
7,0,0,0,0,0,511,494,2,0,0
8,0,0,0,0,0,502,510,2,0,0
9,0,0,0,0,0,517,492,2,0,0
10,0,0,0,0,3,497,508,2,0,0
11,0,0,0,0,0,516,488,2,0,0
12,0,0,0,0,0,498,504,2,0,0
13,0,0,0,0,0,511,484,2,0,0
14,0,0,0,0,1,495,500,2,0,0
15,0,0,0,0,0,510,480,1,0,0
0,0,0,0,0,0,490,497,2,0,0
1,0,0,0,0,0,506,476,1,0,0
2,0,0,0,0,3,488,490,1,0,0
3,0,0,0,0,0,509,470,1,0,0
4,0,0,0,0,0,492,486,2,0,0
5,0,0,0,0,0,512,468,1,0,0
6,0,0,0,0,3,498,482,1,0,0
7,0,0,0,0,0,516,464,1,0,0
8,0,0,0,0,0,502,479,2,0,0
9,0,0,0,0,0,519,460,1,0,0
10,0,0,0,0,3,502,477,1,0,0
11,0,0,0,0,0,519,456,1,0,0
12,0,0,0,0,0,501,474,2,0,0
13,0,0,0,0,0,519,453,1,0,0
14,0,0,0,0,3,498,471,1,0,0
15,0,0,0,0,0,514,448,1,0,0
0,0,0,0,0,0,491,466,2,0,0
1,0,0,0,0,0,516,444,1,0,0
2,0,0,0,0,3,486,461,1,0,0
3,0,0,0,0,0,515,440,1,0,0
4,0,0,0,0,0,504,459,1,0,0
5,0,0,0,0,0,522,437,1,0,0
6,0,0,0,0,3,499,457,1,0,0
7,0,0,0,0,0,517,436,1,0,0
8,0,0,0,0,0,488,454,1,0,0
9,0,0,0,0,0,499,435,1,0,0
10,0,0,0,0,3,486,454,1,0,0
11,0,0,0,0,0,507,434,1,0,0
12,0,0,0,0,0,488,453,1,0,0
13,0,0,0,0,0,474,432,1,0,0
14,0,0,0,0,3,441,453,1,0,0
15,0,0,0,0,0,553,435,1,0,0
0,0,0,0,0,0,885,454,1,0,0
1,0,0,0,0,0,980,435,1,0,0
2,0,0,0,0,3,538,455,1,0,0
3,0,0,0,0,0,396,436,1,0,0
4,0,0,0,0,0,423,457,1,0,0
5,0,0,0,0,0,445,438,1,0,0
6,0,0,0,0,3,428,459,1,0,0
7,0,0,0,0,0,453,439,1,0,0
8,0,0,0,0,0,440,458,1,0,0
9,0,0,0,0,0,467,440,1,0,0
10,0,0,0,0,1,458,459,1,0,0
11,0,0,0,0,0,482,439,1,0,0
12,0,0,0,0,0,469,460,1,0,0
13,0,0,0,0,0,496,439,1,0,0
14,0,0,0,0,3,482,460,1,0,0
15,0,0,0,0,0,507,440,1,0,0
0,0,0,0,0,0,494,463,2,0,0
1,0,0,0,0,0,522,442,1,0,0
2,0,0,0,0,3,513,461,1,0,0
3,0,0,0,0,0,537,441,1,0,0
4,0,0,0,0,0,526,462,2,0,0
5,0,0,0,0,0,547,444,1,0,0
6,0,0,0,0,3,530,460,1,0,0
7,0,0,0,0,0,551,441,1,0,0
8,0,0,0,0,0,527,462,1,0,0
9,0,0,0,0,0,529,443,1,0,0
10,0,0,0,0,3,492,464,1,0,0
11,0,0,0,0,0,494,445,1,0,0
12,0,0,0,0,0,463,466,1,0,0
13,0,0,0,0,0,480,445,1,0,0
14,0,0,0,0,3,459,467,1,0,0
15,0,0,0,0,0,480,445,1,0,0
0,0,0,0,0,0,466,467,2,0,0
1,0,0,0,0,0,492,446,1,0,0
2,0,0,0,0,3,474,469,1,0,0
3,0,0,0,0,0,499,447,1,0,0
4,0,0,0,0,0,481,467,2,0,0
5,0,0,0,0,0,504,449,1,0,0
6,0,0,0,0,3,487,469,1,0,0
7,0,0,0,0,0,511,448,1,0,0
8,0,0,0,0,0,495,471,2,0,0
9,0,0,0,0,0,518,447,1,0,0
10,0,0,0,0,3,500,468,1,0,0
11,0,0,0,0,0,521,448,1,0,0
12,0,0,0,0,0,502,470,2,0,0
13,0,0,0,0,0,521,449,1,0,0
14,0,0,0,0,3,499,468,1,0,0
15,0,0,0,0,0,523,447,1,0,0
0,0,0,0,0,0,502,467,2,0,0
1,0,0,0,0,0,523,448,1,0,0
2,0,0,0,0,3,502,467,1,0,0
3,0,0,0,0,0,523,447,1,0,0
4,0,0,0,0,0,504,468,2,0,0
5,0,0,0,0,1,523,447,1,0,0
6,0,0,0,0,0,504,470,1,0,0
7,0,0,0,0,0,523,448,1,0,0
8,0,0,0,0,0,503,470,2,0,0
9,0,0,0,0,0,526,448,1,0,0
10,0,0,0,0,3,507,470,1,0,0
11,0,0,0,0,0,527,448,1,0,0
12,0,0,0,0,0,507,467,1,0,0
13,0,0,0,0,0,528,446,1,0,0
14,0,0,0,0,3,505,467,1,0,0
15,0,0,0,0,0,521,443,1,0,0
0,0,0,0,0,0,501,464,1,0,0
1,0,0,0,0,0,514,440,1,0,0
2,0,0,0,0,3,497,458,1,0,0
3,0,0,0,0,0,512,437,1,0,0
4,0,0,0,0,0,495,459,1,0,0
5,0,0,0,0,0,524,435,1,0,0
6,0,0,0,0,3,506,457,1,0,0
7,0,0,0,0,0,522,434,1,0,0
8,0,0,0,0,0,501,456,1,0,0
9,0,0,0,0,0,515,435,1,0,0
10,0,0,0,0,3,493,458,1,0,0
11,0,0,0,0,0,512,436,1,0,0
12,0,0,0,0,0,495,458,1,0,0
13,0,0,0,0,0,515,436,1,0,0
14,0,0,0,0,3,462,458,1,0,0
15,0,0,0,0,0,472,434,1,0,0
0,0,0,0,0,0,531,457,1,0,0
1,0,0,0,0,0,862,438,1,0,0
2,0,0,0,0,3,981,459,1,0,0
3,0,0,0,0,0,609,436,1,0,0
4,0,0,0,0,0,371,461,1,0,0
5,0,0,0,0,0,417,440,1,0,0
6,0,0,0,0,3,436,463,1,0,0
7,0,0,0,0,0,468,441,1,0,0
8,0,0,0,0,0,458,465,1,0,0
9,0,0,0,0,0,489,445,1,0,0
10,0,0,0,0,3,478,467,1,0,0
11,0,0,0,0,0,505,446,1,0,0
12,0,0,0,0,0,495,469,2,0,0
13,0,0,0,0,0,520,450,1,0,0
14,0,0,0,0,3,504,474,1,0,0
15,0,0,0,0,0,531,455,1,0,0
0,0,0,0,0,0,515,479,2,0,0
1,0,0,0,0,0,542,459,1,0,0
2,0,0,0,0,1,528,483,1,0,0
3,0,0,0,0,0,555,465,1,0,0
4,0,0,0,0,0,534,487,2,0,0
5,0,0,0,0,0,555,465,1,0,0
6,0,0,0,0,3,535,487,1,0,0
7,0,0,0,0,0,547,464,1,0,0
8,0,0,0,0,0,519,486,2,0,0
9,0,0,0,0,0,530,462,1,0,0
10,0,0,0,0,3,496,481,1,0,0
11,0,0,0,0,0,490,460,1,0,0
12,0,0,0,0,0,454,478,2,0,0
13,0,0,0,0,0,465,454,1,0,0
14,0,0,0,0,3,444,476,1,0,0
15,0,0,0,0,0,462,451,1,0,0
0,0,0,0,0,0,447,473,2,0,0
1,0,0,0,0,0,472,454,1,0,0
2,0,0,0,0,3,456,476,1,0,0
3,0,0,0,0,0,486,454,1,0,0
4,0,0,0,0,0,470,475,2,0,0
5,0,0,0,0,0,494,455,1,0,0
6,0,0,0,0,3,476,478,1,0,0
7,0,0,0,0,0,500,455,1,0,0
8,0,0,0,0,0,482,478,2,0,0
9,0,0,0,0,0,505,457,1,0,0
10,0,0,0,0,3,489,478,1,0,0
11,0,0,0,0,0,513,457,1,0,0
12,0,0,0,0,0,497,480,2,0,0
13,0,0,0,0,0,519,459,1,0,0
14,0,0,0,0,3,503,481,1,0,0
15,0,0,0,0,0,526,460,1,0,0
0,0,0,0,0,0,508,482,2,0,0
1,0,0,0,0,0,534,457,1,0,0
2,0,0,0,0,3,514,478,1,0,0
3,0,0,0,0,0,540,452,1,0,0
4,0,0,0,0,0,519,472,2,0,0
5,0,0,0,0,0,537,448,1,0,0
6,0,0,0,0,3,518,467,1,0,0
7,0,0,0,0,0,532,443,1,0,0
8,0,0,0,0,0,505,462,1,0,0
9,0,0,0,0,0,517,440,1,0,0
10,0,0,0,0,3,485,462,1,0,0
11,0,0,0,0,0,504,439,1,0,0
12,0,0,0,0,0,477,462,1,0,0
13,0,0,0,0,0,495,441,1,0,0
14,0,0,0,0,1,480,465,1,0,0
15,0,0,0,0,0,505,444,1,0,0
0,0,0,0,0,0,489,467,2,0,0
1,0,0,0,0,0,515,446,1,0,0
2,0,0,0,0,3,495,467,1,0,0
3,0,0,0,0,0,517,446,1,0,0
4,0,0,0,0,0,502,467,1,0,0
5,0,0,0,0,0,518,445,1,0,0
6,0,0,0,0,3,506,467,1,0,0
7,0,0,0,0,0,531,444,1,0,0
8,0,0,0,0,0,513,469,2,0,0
9,0,0,0,0,0,531,447,1,0,0
10,0,0,0,0,3,510,470,1,0,0
11,0,0,0,0,0,526,450,1,0,0
12,0,0,0,0,0,504,475,2,0,0
13,0,0,0,0,0,523,454,1,0,0
14,0,0,0,0,3,504,479,1,0,0
15,0,0,0,0,0,521,457,1,0,0
0,0,0,0,0,0,465,481,2,0,0
1,0,0,0,0,0,480,459,1,0,0
2,0,0,0,0,1,590,481,2,0,0
3,0,0,0,0,0,988,460,1,0,0
4,0,0,0,0,0,961,481,2,0,0
5,0,0,0,0,0,521,461,2,0,0
6,0,0,0,0,3,379,483,1,0,0
7,0,0,0,0,0,440,462,1,0,0
8,0,0,0,0,0,420,486,2,0,0
9,0,0,0,0,0,440,464,1,0,0
10,0,0,0,0,3,425,487,1,0,0
11,0,0,0,0,0,454,467,1,0,0
12,0,0,0,0,0,443,491,2,0,0
13,0,0,0,0,0,471,470,1,0,0
14,0,0,0,0,3,454,494,1,0,0
15,0,0,0,0,0,485,470,1,0,0
0,0,0,0,0,0,472,494,2,0,0
1,0,0,0,0,0,500,470,2,0,0
2,0,0,0,0,3,491,492,2,0,0
3,0,0,0,0,0,515,468,1,0,0
4,0,0,0,0,0,506,489,2,0,0
5,0,0,0,0,0,533,468,1,0,0
6,0,0,0,0,3,519,489,1,0,0
7,0,0,0,0,0,544,465,1,0,0
8,0,0,0,0,0,527,488,2,0,0
9,0,0,0,0,0,546,463,1,0,0
10,0,0,0,0,3,524,483,1,0,0
11,0,0,0,0,0,540,462,1,0,0
12,0,0,0,0,0,501,483,2,0,0
13,0,0,0,0,0,497,461,1,0,0
14,0,0,0,0,3,461,482,1,0,0
15,0,0,0,0,0,468,460,1,0,0
0,0,0,0,0,0,444,484,2,0,0
1,0,0,0,0,0,466,462,1,0,0
2,0,0,0,0,3,453,488,1,0,0
3,0,0,0,0,0,478,465,2,0,0
4,0,0,0,0,0,464,488,2,0,0
5,0,0,0,0,0,492,465,1,0,0
6,0,0,0,0,3,478,487,1,0,0
7,0,0,0,0,0,506,463,1,0,0
8,0,0,0,0,0,490,485,2,0,0
9,0,0,0,0,0,518,462,1,0,0
10,0,0,0,0,3,503,481,1,0,0
11,0,0,0,0,0,528,456,1,0,0
12,0,0,0,0,0,509,478,2,0,0
13,0,0,0,0,0,531,452,1,0,0
14,0,0,0,0,0,509,472,1,0,0
15,0,0,0,0,0,530,447,2,0,0
0,0,0,0,0,0,509,466,2,0,0
1,0,0,0,0,0,528,440,1,0,0
2,0,0,0,0,3,501,463,2,0,0
3,0,0,0,0,0,522,439,1,0,0
4,0,0,0,0,0,499,461,1,0,0
5,0,0,0,0,0,517,435,1,0,0
6,0,0,0,0,3,494,459,1,0,0
7,0,0,0,0,0,517,434,1,0,0
8,0,0,0,0,0,494,460,1,0,0
9,0,0,0,0,0,514,435,1,0,0
10,0,0,0,0,3,492,459,1,0,0
11,0,0,0,0,0,515,434,1,0,0
12,0,0,0,0,0,493,458,1,0,0
13,0,0,0,0,0,518,434,1,0,0
14,0,0,0,0,3,495,459,2,0,0
15,0,0,0,0,0,518,433,1,0,0
0,0,0,0,0,0,495,456,1,0,0
1,0,0,0,0,0,514,432,2,0,0
2,0,0,0,0,3,491,455,1,0,0
3,0,0,0,0,0,508,432,1,0,0
4,0,0,0,0,0,484,458,1,0,0
5,0,0,0,0,0,498,432,1,0,0
6,0,0,0,0,3,472,457,1,0,0
7,0,0,0,0,0,499,432,1,0,0
8,0,0,0,0,0,476,458,1,0,0
9,0,0,0,0,0,515,433,1,0,0
10,0,0,0,0,3,504,456,1,0,0
11,0,0,0,0,0,528,433,1,0,0
12,0,0,0,0,0,509,459,2,0,0
13,0,0,0,0,0,526,435,2,0,0
14,0,0,0,0,3,504,462,1,0,0
15,0,0,0,0,0,526,437,1,0,0
0,0,0,0,0,0,507,464,2,0,0
1,0,0,0,0,0,528,441,1,0,0
2,0,0,0,0,3,499,466,1,0,0
3,0,0,0,0,0,486,443,1,0,0
4,0,0,0,0,0,468,470,2,0,0
5,0,0,0,0,0,669,448,1,0,0
6,0,0,0,0,3,1022,474,1,0,0
7,0,0,0,0,0,831,451,1,0,0
8,0,0,0,0,0,428,475,2,0,0
9,0,0,0,0,0,401,450,1,0,0
10,0,0,0,0,0,419,473,1,0,0
11,0,0,0,0,0,445,449,1,0,0
12,0,0,0,0,0,428,474,2,0,0
13,0,0,0,0,0,457,451,1,0,0
14,0,0,0,0,3,442,475,1,0,0
15,0,0,0,0,0,471,450,2,0,0
0,0,0,0,0,0,459,473,2,0,0
1,0,0,0,0,0,493,447,1,0,0
2,0,0,0,0,3,481,471,1,0,0
3,0,0,0,0,0,509,446,1,0,0
4,0,0,0,0,0,494,468,1,0,0
5,0,0,0,0,0,524,444,1,0,0
6,0,0,0,0,3,507,467,1,0,0
7,0,0,0,0,0,539,440,1,0,0
8,0,0,0,0,0,522,466,1,0,0
9,0,0,0,0,0,548,439,1,0,0
10,0,0,0,0,3,530,462,1,0,0
11,0,0,0,0,0,554,436,2,0,0
12,0,0,0,0,0,531,462,1,0,0
13,0,0,0,0,0,547,435,1,0,0
14,0,0,0,0,3,511,463,2,0,0
15,0,0,0,0,0,511,436,1,0,0
0,0,0,0,0,0,467,460,1,0,0
1,0,0,0,0,0,469,434,1,0,0
2,0,0,0,0,3,439,460,1,0,0
3,0,0,0,0,0,458,435,1,0,0
4,0,0,0,0,0,439,460,1,0,0
5,0,0,0,0,0,467,435,1,0,0
6,0,0,0,0,3,448,460,1,0,0
7,0,0,0,0,0,483,434,1,0,0
8,0,0,0,0,0,470,460,1,0,0
9,0,0,0,0,0,496,435,1,0,0
10,0,0,0,0,3,481,462,2,0,0
11,0,0,0,0,0,505,435,1,0,0
12,0,0,0,0,0,487,460,1,0,0
13,0,0,0,0,0,512,437,2,0,0
14,0,0,0,0,3,493,460,1,0,0
15,0,0,0,0,0,512,435,1,0,0
0,0,0,0,0,0,490,460,1,0,0
1,0,0,0,0,0,513,435,1,0,0
2,0,0,0,0,3,493,462,1,0,0
3,0,0,0,0,0,519,434,1,0,0
4,0,0,0,0,0,498,462,1,0,0
5,0,0,0,0,0,520,438,1,0,0
6,0,0,0,0,0,500,462,1,0,0
7,0,0,0,0,0,526,437,1,0,0
8,0,0,0,0,0,504,462,1,0,0
9,0,0,0,0,0,528,438,2,0,0
10,0,0,0,0,3,509,463,1,0,0
11,0,0,0,0,0,531,437,1,0,0
12,0,0,0,0,0,508,462,2,0,0
13,0,0,0,0,0,528,438,1,0,0
14,0,0,0,0,3,507,464,1,0,0
15,0,0,0,0,0,528,438,1,0,0
0,0,0,0,0,0,504,463,2,0,0
1,0,0,0,0,0,525,438,1,0,0
2,0,0,0,0,3,503,464,1,0,0
3,0,0,0,0,0,524,440,1,0,0
4,0,0,0,0,0,502,465,2,0,0
5,0,0,0,0,0,523,443,1,0,0
6,0,0,0,0,3,501,467,1,0,0
7,0,0,0,0,0,518,444,1,0,0
8,0,0,0,0,0,500,468,2,0,0
9,0,0,0,0,0,518,444,1,0,0
10,0,0,0,0,3,504,468,1,0,0
11,0,0,0,0,0,532,443,2,0,0
12,0,0,0,0,0,510,468,1,0,0
13,0,0,0,0,0,528,444,1,0,0
14,0,0,0,0,3,505,469,1,0,0
15,0,0,0,0,0,525,443,1,0,0
0,0,0,0,0,0,504,468,2,0,0
1,0,0,0,0,0,524,442,1,0,0
2,0,0,0,0,3,503,468,1,0,0
3,0,0,0,0,1,520,441,1,0,0
4,0,0,0,0,0,459,466,2,0,0
5,0,0,0,0,0,495,441,1,0,0
6,0,0,0,0,3,635,466,1,0,0
7,0,0,0,0,0,1021,441,1,0,0
8,0,0,0,0,0,876,466,1,0,0
9,0,0,0,0,0,457,439,1,0,0
10,0,0,0,0,3,349,465,2,0,0
11,0,0,0,0,0,416,440,1,0,0
12,0,0,0,0,0,423,465,1,0,0
13,0,0,0,0,0,451,440,1,0,0
14,0,0,0,0,3,439,464,1,0,0
15,0,0,0,0,0,471,441,1,0,0
0,0,0,0,0,0,456,467,1,0,0
1,0,0,0,0,0,489,442,1,0,0
2,0,0,0,0,1,474,468,1,0,0
3,0,0,0,0,0,504,444,1,0,0
4,0,0,0,0,0,489,469,2,0,0
5,0,0,0,0,0,521,445,1,0,0
6,0,0,0,0,3,507,470,1,0,0
7,0,0,0,0,0,537,446,1,0,0
8,0,0,0,0,0,520,470,2,0,0
9,0,0,0,0,1,547,446,1,0,0
10,0,0,0,0,3,535,472,1,0,0
11,0,0,0,0,0,559,447,1,0,0
12,0,0,0,0,0,536,473,2,0,0
13,0,0,0,0,0,557,449,1,0,0
14,0,0,0,0,3,530,474,1,0,0
15,0,0,0,0,0,539,452,1,0,0
0,0,0,0,0,0,501,477,2,0,0
1,0,0,0,0,0,496,453,1,0,0
2,0,0,0,0,3,457,478,1,0,0
3,0,0,0,0,0,467,455,1,0,0
4,0,0,0,0,0,443,480,2,0,0
5,0,0,0,0,0,465,456,2,0,0
6,0,0,0,0,3,448,481,1,0,0
7,0,0,0,0,0,477,457,1,0,0
8,0,0,0,0,0,462,481,2,0,0
9,0,0,0,0,0,491,458,1,0,0
10,0,0,0,0,3,472,483,1,0,0
11,0,0,0,0,0,498,458,1,0,0
12,0,0,0,0,0,482,482,2,0,0
13,0,0,0,0,0,509,456,1,0,0
14,0,0,0,0,3,494,480,1,0,0
15,0,0,0,0,0,517,455,1,0,0
0,0,0,0,0,0,500,480,2,0,0
1,0,0,0,0,0,522,454,1,0,0
2,0,0,0,0,3,504,479,1,0,0
3,0,0,0,0,0,524,454,1,0,0
4,0,0,0,0,0,501,477,2,0,0
5,0,0,0,0,0,524,452,1,0,0
6,0,0,0,0,3,503,477,1,0,0
7,0,0,0,0,0,525,451,1,0,0
8,0,0,0,0,0,502,476,2,0,0
9,0,0,0,0,0,523,450,1,0,0
10,0,0,0,0,3,501,474,1,0,0
11,0,0,0,0,0,525,449,1,0,0
12,0,0,0,0,0,502,474,2,0,0
13,0,0,0,0,0,524,449,1,0,0
14,0,0,0,0,0,504,475,1,0,0
15,0,0,0,0,0,524,450,1,0,0
0,0,0,0,0,0,505,475,2,0,0
1,0,0,0,0,0,525,451,1,0,0
2,0,0,0,0,3,503,476,1,0,0
3,0,0,0,0,0,526,453,1,0,0
4,0,0,0,0,0,504,477,2,0,0
5,0,0,0,0,0,526,455,1,0,0
6,0,0,0,0,3,502,479,1,0,0
7,0,0,0,0,0,523,456,1,0,0
8,0,0,0,0,0,499,480,2,0,0
9,0,0,0,0,0,523,457,1,0,0
10,0,0,0,0,3,495,481,1,0,0
11,0,0,0,0,0,519,457,1,0,0
12,0,0,0,0,0,510,482,1,0,0
13,0,0,0,0,0,531,457,1,0,0
14,0,0,0,0,3,509,480,1,0,0
15,0,0,0,0,0,529,455,1,0,0
0,0,0,0,0,0,505,480,2,0,0
1,0,0,0,0,0,524,456,1,0,0
2,0,0,0,0,3,503,480,1,0,0
3,0,0,0,0,0,521,456,1,0,0
4,0,0,0,0,0,501,481,2,0,0
5,0,0,0,0,0,484,456,1,0,0
6,0,0,0,0,3,454,480,1,0,0
7,0,0,0,0,0,601,455,1,0,0
8,0,0,0,0,0,949,479,2,0,0
9,0,0,0,0,0,990,453,1,0,0
10,0,0,0,0,3,495,477,1,0,0
11,0,0,0,0,0,370,451,1,0,0
12,0,0,0,0,0,401,475,2,0,0
13,0,0,0,0,0,427,452,1,0,0
14,0,0,0,0,3,407,478,1,0,0
15,0,0,0,0,0,437,455,1,0,0
0,0,0,0,0,0,425,480,2,0,0
1,0,0,0,0,0,454,459,1,0,0
2,0,0,0,0,3,444,482,1,0,0
3,0,0,0,0,0,476,460,1,0,0
4,0,0,0,0,0,465,483,2,0,0
5,0,0,0,0,0,493,459,1,0,0
6,0,0,0,0,3,481,483,1,0,0
7,0,0,0,0,0,510,458,1,0,0
8,0,0,0,0,0,500,483,2,0,0
9,0,0,0,0,0,530,460,1,0,0
10,0,0,0,0,0,516,482,1,0,0
11,0,0,0,0,0,543,460,1,0,0
12,0,0,0,0,0,530,481,2,0,0
13,0,0,0,0,0,551,458,1,0,0
14,0,0,0,0,3,531,483,1,0,0
15,0,0,0,0,0,551,458,1,0,0
0,0,0,0,0,0,524,482,2,0,0
1,0,0,0,0,0,528,457,1,0,0
2,0,0,0,0,3,485,478,1,0,0
3,0,0,0,0,0,486,452,1,0,0
4,0,0,0,0,0,449,476,2,0,0
5,0,0,0,0,0,464,451,1,0,0
6,0,0,0,0,3,445,476,1,0,0
7,0,0,0,0,0,471,451,1,0,0
8,0,0,0,0,0,457,478,2,0,0
9,0,0,0,0,1,480,455,1,0,0
10,0,0,0,0,3,464,479,1,0,0
11,0,0,0,0,0,492,457,1,0,0
12,0,0,0,0,0,476,480,2,0,0
13,0,0,0,0,0,502,456,1,0,0
14,0,0,0,0,0,488,481,1,0,0
15,0,0,0,0,1,512,455,1,0,0
0,0,0,0,0,0,494,480,2,0,0
1,0,0,0,0,0,515,456,1,0,0
2,0,0,0,0,3,495,479,1,0,0
3,0,0,0,0,0,515,455,1,0,0
4,0,0,0,0,0,498,478,2,0,0
5,0,0,0,0,1,518,454,1,0,0
6,0,0,0,0,3,498,478,1,0,0
7,0,0,0,0,0,522,452,1,0,0
8,0,0,0,0,0,499,476,1,0,0
9,0,0,0,0,0,521,452,1,0,0
10,0,0,0,0,3,500,477,1,0,0
11,0,0,0,0,0,523,452,1,0,0
12,0,0,0,0,0,503,478,2,0,0
13,0,0,0,0,0,525,451,1,0,0
14,0,0,0,0,3,502,476,1,0,0
15,0,0,0,0,0,524,453,1,0,0
0,0,0,0,0,0,506,478,2,0,0
1,0,0,0,0,0,524,452,1,0,0
2,0,0,0,0,3,502,478,1,0,0
3,0,0,0,0,0,523,454,1,0,0
4,0,0,0,0,0,503,478,2,0,0
5,0,0,0,0,0,526,454,1,0,0
6,0,0,0,0,3,507,478,1,0,0
7,0,0,0,0,1,527,453,1,0,0
8,0,0,0,0,0,510,479,2,0,0
9,0,0,0,0,0,528,455,1,0,0
10,0,0,0,0,3,501,478,1,0,0
11,0,0,0,0,0,530,455,1,0,0
12,0,0,0,0,0,500,479,2,0,0
13,0,0,0,0,0,523,454,1,0,0
14,0,0,0,0,3,515,480,1,0,0
15,0,0,0,0,0,538,455,1,0,0
0,0,0,0,0,0,512,479,2,0,0
1,0,0,0,0,0,534,455,1,0,0
2,0,0,0,0,3,506,479,1,0,0
3,0,0,0,0,1,522,455,1,0,0
4,0,0,0,0,0,504,479,2,0,0
5,0,0,0,0,0,524,455,1,0,0
6,0,0,0,0,3,505,480,1,0,0
7,0,0,0,0,0,490,456,1,0,0
8,0,0,0,0,0,455,481,2,0,0
9,0,0,0,0,1,583,455,1,0,0
10,0,0,0,0,1,920,480,1,0,0
11,0,0,0,0,0,992,456,1,0,0
12,0,0,0,0,0,518,481,2,0,0
13,0,0,0,0,0,379,457,1,0,0
14,0,0,0,0,3,402,481,1,0,0
15,0,0,0,0,0,430,457,1,0,0
0,0,0,0,0,0,411,479,2,0,0
1,0,0,0,0,0,439,455,1,0,0
2,0,0,0,0,3,427,480,1,0,0
3,0,0,0,0,0,456,455,1,0,0
4,0,0,0,0,0,447,480,2,0,0
5,0,0,0,0,1,476,455,1,0,0
6,0,0,0,0,3,463,480,1,0,0
7,0,0,0,0,0,492,456,1,0,0
8,0,0,0,0,0,476,479,1,0,0
9,0,0,0,0,0,508,455,1,0,0
10,0,0,0,0,3,497,478,1,0,0
11,0,0,0,0,0,525,454,1,0,0
12,0,0,0,0,0,508,478,2,0,0
13,0,0,0,0,0,539,452,1,0,0
14,0,0,0,0,3,520,476,1,0,0
15,0,0,0,0,0,549,451,1,0,0
0,0,0,0,0,0,529,476,2,0,0
1,0,0,0,0,1,547,448,1,0,0
2,0,0,0,0,3,524,473,1,0,0
3,0,0,0,0,0,529,449,1,0,0
4,0,0,0,0,0,488,473,1,0,0
5,0,0,0,0,0,486,449,1,0,0
6,0,0,0,0,3,451,473,1,0,0
7,0,0,0,0,1,465,448,1,0,0
8,0,0,0,0,0,443,472,2,0,0
9,0,0,0,0,0,467,448,1,0,0
10,0,0,0,0,3,448,473,1,0,0
11,0,0,0,0,0,477,448,1,0,0
12,0,0,0,0,0,461,472,2,0,0
13,0,0,0,0,0,490,449,1,0,0
14,0,0,0,0,3,476,472,1,0,0
15,0,0,0,0,0,501,449,1,0,0
0,0,0,0,0,0,484,473,1,0,0
1,0,0,0,0,0,511,449,1,0,0
2,0,0,0,0,3,493,473,1,0,0
3,0,0,0,0,1,515,448,1,0,0
4,0,0,0,0,0,499,474,2,0,0
5,0,0,0,0,0,519,450,1,0,0
6,0,0,0,0,1,499,476,1,0,0
7,0,0,0,0,0,522,451,1,0,0
8,0,0,0,0,0,495,474,2,0,0
9,0,0,0,0,0,520,451,1,0,0
10,0,0,0,0,3,499,477,1,0,0
11,0,0,0,0,0,521,451,1,0,0
12,0,0,0,0,0,501,476,2,0,0
13,0,0,0,0,0,524,452,1,0,0
14,0,0,0,0,3,504,477,1,0,0
15,0,0,0,0,1,526,452,1,0,0
0,0,0,0,0,0,507,477,2,0,0
1,0,0,0,0,0,525,455,1,0,0
2,0,0,0,0,3,504,479,1,0,0
3,0,0,0,0,0,524,457,1,0,0
4,0,0,0,0,0,504,482,2,0,0
5,0,0,0,0,1,523,458,1,0,0
6,0,0,0,0,3,504,482,1,0,0
7,0,0,0,0,0,527,460,1,0,0
8,0,0,0,0,0,508,483,2,0,0
9,0,0,0,0,0,526,460,1,0,0
10,0,0,0,0,3,506,484,1,0,0
11,0,0,0,0,1,524,460,1,0,0
12,0,0,0,0,0,508,484,2,0,0
13,0,0,0,0,0,524,461,1,0,0
14,0,0,0,0,3,502,485,1,0,0
15,0,0,0,0,0,534,461,1,0,0
0,0,0,0,0,0,515,486,2,0,0
1,0,0,0,0,1,531,461,1,0,0
2,0,0,0,0,3,514,485,1,0,0
3,0,0,0,0,0,528,461,1,0,0
4,0,0,0,0,0,504,483,1,0,0
5,0,0,0,0,0,525,460,1,0,0
6,0,0,0,0,3,508,483,1,0,0
7,0,0,0,0,0,529,459,1,0,0
8,0,0,0,0,0,472,482,2,0,0
9,0,0,0,0,0,481,461,1,0,0
10,0,0,0,0,3,541,482,1,0,0
11,0,0,0,0,0,860,457,1,0,0
12,0,0,0,0,0,1000,482,2,0,0
13,0,0,0,0,1,625,456,1,0,0
14,0,0,0,0,3,352,479,1,0,0
15,0,0,0,0,0,396,455,1,0,0
0,0,0,0,0,0,417,478,1,0,0
1,0,0,0,0,0,448,457,1,0,0
2,0,0,0,0,0,432,480,1,0,0
3,0,0,0,0,1,458,456,1,0,0
4,0,0,0,0,0,451,482,2,0,0
5,0,0,0,0,0,481,457,1,0,0
6,0,0,0,0,3,471,482,1,0,0
7,0,0,0,0,0,499,457,1,0,0
8,0,0,0,0,0,486,481,2,0,0
9,0,0,0,0,0,514,456,1,0,0
10,0,0,0,0,3,502,480,1,0,0
11,0,0,0,0,0,530,455,1,0,0
12,0,0,0,0,0,514,478,1,0,0
13,0,0,0,0,0,543,454,1,0,0
14,0,0,0,0,3,528,476,1,0,0
15,0,0,0,0,1,555,450,1,0,0
0,0,0,0,0,0,531,476,2,0,0
1,0,0,0,0,0,552,450,1,0,0
2,0,0,0,0,4,525,472,1,0,0
3,0,0,0,0,0,543,447,1,0,0
4,0,0,0,0,0,506,472,1,0,0
5,0,0,0,0,1,506,447,1,0,0
6,0,0,0,0,3,464,472,1,0,0
7,0,0,0,0,0,470,448,1,0,0
8,0,0,0,0,0,443,473,1,0,0
9,0,0,0,0,0,463,448,1,0,0
10,0,0,0,0,3,449,473,1,0,0
11,0,0,0,0,1,475,448,1,0,0
12,0,0,0,0,0,462,472,2,0,0
13,0,0,0,0,0,489,449,1,0,0
14,0,0,0,0,4,474,473,1,0,0
15,0,0,0,0,0,498,448,1,0,0
0,0,0,0,0,0,481,471,2,0,0
1,0,0,0,0,0,505,447,1,0,0
2,0,0,0,0,3,487,472,1,0,0
3,0,0,0,0,0,513,444,1,0,0
4,0,0,0,0,0,492,470,1,0,0
5,0,0,0,0,0,515,444,1,0,0
6,0,0,0,0,3,493,468,1,0,0
7,0,0,0,0,1,516,443,1,0,0
8,0,0,0,0,0,499,469,2,0,0
9,0,0,0,0,0,518,444,1,0,0
10,0,0,0,0,4,496,467,1,0,0
11,0,0,0,0,0,518,445,1,0,0
12,0,0,0,0,0,499,470,2,0,0
13,0,0,0,0,1,522,445,1,0,0
14,0,0,0,0,1,501,469,1,0,0
15,0,0,0,0,0,527,445,1,0,0
0,0,0,0,0,1,505,468,1,0,0
1,0,0,0,0,0,527,442,1,0,0
2,0,0,0,0,3,503,467,1,0,0
3,0,0,0,0,0,526,441,1,0,0
4,0,0,0,0,0,504,467,1,0,0
5,0,0,0,0,0,523,441,1,0,0
6,0,0,0,0,3,499,468,1,0,0
7,0,0,0,0,0,521,443,1,0,0
8,0,0,0,0,0,502,468,2,0,0
9,0,0,0,0,1,526,444,1,0,0
10,0,0,0,0,3,501,468,1,0,0
11,0,0,0,0,0,521,444,1,0,0
12,0,0,0,0,0,505,471,1,0,0
13,0,0,0,0,0,516,446,1,0,0
14,0,0,0,0,3,503,470,1,0,0
15,0,0,0,0,1,531,444,1,0,0
0,0,0,0,0,0,510,469,2,0,0
1,0,0,0,0,0,531,443,1,0,0
2,0,0,0,0,3,511,468,1,0,0
3,0,0,0,0,0,527,441,1,0,0
4,0,0,0,0,0,504,465,1,0,0
5,0,0,0,0,1,527,440,1,0,0
6,0,0,0,0,3,504,467,1,0,0
7,0,0,0,0,0,515,442,1,0,0
8,0,0,0,0,1,455,468,1,0,0
9,0,0,0,0,0,491,444,1,0,0
10,0,0,0,0,3,655,468,1,0,0
11,0,0,0,0,1,1022,446,1,0,0
12,0,0,0,0,0,833,473,2,0,0
13,0,0,0,0,0,419,448,1,0,0
14,0,0,0,0,3,362,474,1,0,0
15,0,0,0,0,0,432,447,1,0,0
0,0,0,0,0,0,416,473,2,0,0
1,0,0,0,0,0,440,450,1,0,0
2,0,0,0,0,3,429,476,1,0,0
3,0,0,0,0,0,458,448,1,0,0
4,0,0,0,0,0,448,474,1,0,0
5,0,0,0,0,0,476,449,1,0,0
6,0,0,0,0,3,463,474,1,0,0
7,0,0,0,0,1,490,448,1,0,0
8,0,0,0,0,0,480,473,2,0,0
9,0,0,0,0,0,509,449,1,0,0
10,0,0,0,0,1,495,472,1,0,0
11,0,0,0,0,0,525,446,1,0,0
12,0,0,0,0,0,511,470,2,0,0
13,0,0,0,0,1,536,446,1,0,0
14,0,0,0,0,3,524,471,1,0,0
15,0,0,0,0,0,550,448,1,0,0
0,0,0,0,0,0,530,474,2,0,0
1,0,0,0,0,0,551,449,1,0,0
2,0,0,0,0,3,528,474,1,0,0
3,0,0,0,0,0,540,447,1,0,0
4,0,0,0,0,0,499,473,2,0,0
5,0,0,0,0,0,498,447,1,0,0
6,0,0,0,0,3,461,470,1,0,0
7,0,0,0,0,0,470,447,1,0,0
8,0,0,0,0,0,446,470,2,0,0
9,0,0,0,0,1,470,446,1,0,0
10,0,0,0,0,3,448,470,1,0,0
11,0,0,0,0,0,479,445,1,0,0
12,0,0,0,0,0,463,469,1,0,0
13,0,0,0,0,0,487,444,1,0,0
14,0,0,0,0,3,471,469,1,0,0
15,0,0,0,0,1,496,443,1,0,0
0,0,0,0,0,0,479,467,2,0,0
1,0,0,0,0,0,504,444,1,0,0
2,0,0,0,0,3,484,471,1,0,0
3,0,0,0,0,0,510,448,1,0,0
4,0,0,0,0,0,489,473,2,0,0
5,0,0,0,0,1,512,451,1,0,0
6,0,0,0,0,3,499,477,1,0,0
7,0,0,0,0,0,524,451,1,0,0
8,0,0,0,0,0,505,475,1,0,0
9,0,0,0,0,0,526,451,1,0,0
10,0,0,0,0,3,506,474,1,0,0
11,0,0,0,0,1,528,449,1,0,0
12,0,0,0,0,0,504,476,2,0,0
13,0,0,0,0,0,523,452,1,0,0
14,0,0,0,0,3,502,478,1,0,0
15,0,0,0,0,0,525,454,1,0,0
0,0,0,0,0,0,504,478,2,0,0
1,0,0,0,0,0,530,453,1,0,0
2,0,0,0,0,3,510,476,1,0,0
3,0,0,0,0,0,531,449,1,0,0
4,0,0,0,0,0,509,473,1,0,0
5,0,0,0,0,0,527,448,1,0,0
6,0,0,0,0,1,501,472,1,0,0
7,0,0,0,0,1,521,448,1,0,0
8,0,0,0,0,0,500,471,2,0,0
9,0,0,0,0,0,523,448,1,0,0
10,0,0,0,0,3,498,473,1,0,0
11,0,0,0,0,0,525,449,1,0,0
12,0,0,0,0,0,500,473,2,0,0
13,0,0,0,0,0,520,447,1,0,0
14,0,0,0,0,3,511,473,1,0,0
15,0,0,0,0,0,536,448,1,0,0
0,0,0,0,0,0,513,472,2,0,0
1,0,0,0,0,0,532,447,1,0,0
2,0,0,0,0,3,508,473,1,0,0
3,0,0,0,0,1,523,447,1,0,0
4,0,0,0,0,0,501,473,2,0,0
5,0,0,0,0,0,525,449,1,0,0
6,0,0,0,0,3,502,474,1,0,0
7,0,0,0,0,0,494,449,1,0,0
8,0,0,0,0,0,453,473,2,0,0
9,0,0,0,0,1,545,447,1,0,0
10,0,0,0,0,0,830,473,1,0,0
11,0,0,0,0,0,1022,448,1,0,0
12,0,0,0,0,0,602,472,2,0,0
13,0,0,0,0,0,374,446,1,0,0
14,0,0,0,0,3,396,472,1,0,0
15,0,0,0,0,1,434,445,1,0,0
0,0,0,0,0,0,414,472,1,0,0
1,0,0,0,0,0,443,445,1,0,0
2,0,0,0,0,3,431,470,1,0,0
3,0,0,0,0,0,461,446,1,0,0
4,0,0,0,0,0,447,471,2,0,0
5,0,0,0,0,1,476,447,1,0,0
6,0,0,0,0,3,462,473,1,0,0
7,0,0,0,0,0,494,448,1,0,0
8,0,0,0,0,0,482,472,1,0,0
9,0,0,0,0,0,509,449,1,0,0
10,0,0,0,0,3,496,472,1,0,0
11,0,0,0,0,1,526,447,1,0,0
12,0,0,0,0,0,513,472,2,0,0
13,0,0,0,0,0,539,446,1,0,0
14,0,0,0,0,3,526,473,1,0,0
15,0,0,0,0,0,550,446,1,0,0
0,0,0,0,0,0,530,472,1,0,0
1,0,0,0,0,1,548,446,1,0,0
2,0,0,0,0,3,524,471,1,0,0
3,0,0,0,0,0,527,444,1,0,0
4,0,0,0,0,0,487,469,1,0,0
5,0,0,0,0,0,490,443,1,0,0
6,0,0,0,0,3,454,469,1,0,0
7,0,0,0,0,1,465,446,1,0,0
8,0,0,0,0,0,441,472,2,0,0
9,0,0,0,0,0,466,449,1,0,0
10,0,0,0,0,3,452,473,1,0,0
11,0,0,0,0,0,479,448,1,0,0
12,0,0,0,0,0,465,472,2,0,0
13,0,0,0,0,0,492,447,1,0,0
14,0,0,0,0,3,475,472,1,0,0
15,0,0,0,0,0,502,446,1,0,0
0,0,0,0,0,0,484,469,1,0,0
1,0,0,0,0,0,510,447,1,0,0
2,0,0,0,0,3,494,469,1,0,0
3,0,0,0,0,1,515,444,1,0,0
4,0,0,0,0,0,495,469,2,0,0
5,0,0,0,0,0,519,444,1,0,0
6,0,0,0,0,1,496,469,1,0,0
7,0,0,0,0,0,519,446,1,0,0
8,0,0,0,0,0,500,471,2,0,0
9,0,0,0,0,0,522,446,1,0,0
10,0,0,0,0,3,501,472,1,0,0
11,0,0,0,0,0,521,446,1,0,0
12,0,0,0,0,0,502,472,1,0,0
13,0,0,0,0,0,526,446,1,0,0
14,0,0,0,0,3,507,470,1,0,0
15,0,0,0,0,1,533,446,1,0,0
0,0,0,0,0,0,512,471,2,0,0
1,0,0,0,0,0,528,444,1,0,0
2,0,0,0,0,3,506,469,1,0,0
3,0,0,0,0,0,529,444,1,0,0
4,0,0,0,0,0,508,471,2,0,0
5,0,0,0,0,1,527,445,1,0,0
6,0,0,0,0,3,505,469,1,0,0
7,0,0,0,0,0,529,447,1,0,0
8,0,0,0,0,0,509,471,2,0,0
9,0,0,0,0,0,527,448,1,0,0
10,0,0,0,0,3,509,471,1,0,0
11,0,0,0,0,1,528,446,1,0,0
12,0,0,0,0,0,506,470,2,0,0
13,0,0,0,0,0,535,445,1,0,0
14,0,0,0,0,3,518,469,1,0,0
15,0,0,0,0,0,529,443,1,0,0
0,0,0,0,0,0,511,468,1,0,0
1,0,0,0,0,1,529,443,1,0,0
2,0,0,0,0,3,507,469,1,0,0
3,0,0,0,0,0,527,443,1,0,0
4,0,0,0,0,0,510,467,1,0,0
5,0,0,0,0,0,531,443,1,0,0
6,0,0,0,0,3,487,468,1,0,0
7,0,0,0,0,0,487,443,1,0,0
8,0,0,0,0,0,519,468,2,0,0
9,0,0,0,0,0,777,443,1,0,0
10,0,0,0,0,3,1022,468,1,0,0
11,0,0,0,0,0,728,444,1,0,0
12,0,0,0,0,0,368,470,2,0,0
13,0,0,0,0,0,391,446,1,0,0
14,0,0,0,0,3,417,472,1,0,0
15,0,0,0,0,0,441,449,1,0,0
0,0,0,0,0,0,427,473,1,0,0
1,0,0,0,0,0,455,450,1,0,0
2,0,0,0,0,1,444,475,1,0,0
3,0,0,0,0,1,473,449,1,0,0
4,0,0,0,0,0,462,476,2,0,0
5,0,0,0,0,0,491,453,1,0,0
6,0,0,0,0,3,475,477,1,0,0
7,0,0,0,0,0,504,453,1,0,0
8,0,0,0,0,0,491,477,2,0,0
9,0,0,0,0,0,519,455,1,0,0
10,0,0,0,0,3,502,478,1,0,0
11,0,0,0,0,0,533,454,1,0,0
12,0,0,0,0,0,522,478,2,0,0
13,0,0,0,0,0,551,455,1,0,0
14,0,0,0,0,3,533,480,1,0,0
15,0,0,0,0,0,553,455,1,0,0
0,0,0,0,0,0,532,479,2,0,0
1,0,0,0,0,0,548,455,1,0,0
2,0,0,0,0,3,512,479,1,0,0
3,0,0,0,0,0,510,454,1,0,0
4,0,0,0,0,0,466,480,2,0,0
5,0,0,0,0,0,473,455,1,0,0
6,0,0,0,0,3,442,479,1,0,0
7,0,0,0,0,0,465,456,1,0,0
8,0,0,0,0,0,448,480,2,0,0
9,0,0,0,0,0,474,455,1,0,0
10,0,0,0,0,3,460,479,1,0,0
11,0,0,0,0,1,488,454,1,0,0
12,0,0,0,0,0,475,480,2,0,0
13,0,0,0,0,0,497,455,1,0,0
14,0,0,0,0,3,483,478,1,0,0
15,0,0,0,0,0,502,452,1,0,0
0,0,0,0,0,0,483,477,2,0,0
1,0,0,0,0,0,508,451,1,0,0
2,0,0,0,0,3,490,475,1,0,0
3,0,0,0,0,0,512,451,1,0,0
4,0,0,0,0,0,496,475,2,0,0
5,0,0,0,0,0,516,451,1,0,0
6,0,0,0,0,3,501,474,1,0,0
7,0,0,0,0,1,522,452,1,0,0
8,0,0,0,0,0,496,476,2,0,0
9,0,0,0,0,0,520,452,1,0,0
10,0,0,0,0,3,501,477,1,0,0
11,0,0,0,0,0,521,453,1,0,0
12,0,0,0,0,0,504,478,2,0,0
13,0,0,0,0,1,527,455,1,0,0
14,0,0,0,0,1,506,479,1,0,0
15,0,0,0,0,0,524,456,1,0,0
0,0,0,0,0,0,504,480,1,0,0
1,0,0,0,0,0,526,456,1,0,0
2,0,0,0,0,3,505,481,1,0,0
3,0,0,0,0,0,525,457,1,0,0
4,0,0,0,0,0,504,481,2,0,0
5,0,0,0,0,0,526,457,1,0,0
6,0,0,0,0,3,504,483,1,0,0
7,0,0,0,0,0,524,458,1,0,0
8,0,0,0,0,0,505,483,2,0,0
9,0,0,0,0,0,521,458,1,0,0
10,0,0,0,0,3,504,483,1,0,0
11,0,0,0,0,0,534,458,1,0,0
12,0,0,0,0,0,498,482,2,0,0
13,0,0,0,0,0,528,458,1,0,0
14,0,0,0,0,3,511,482,1,0,0
15,0,0,0,0,0,536,457,1,0,0
0,0,0,0,0,0,508,482,2,0,0
1,0,0,0,0,0,527,455,1,0,0
2,0,0,0,0,3,502,479,1,0,0
3,0,0,0,0,0,519,454,1,0,0
4,0,0,0,0,0,498,479,2,0,0
5,0,0,0,0,0,520,451,1,0,0
6,0,0,0,0,3,496,476,1,0,0
7,0,0,0,0,0,479,449,1,0,0
8,0,0,0,0,0,454,474,2,0,0
9,0,0,0,0,0,622,449,1,0,0
10,0,0,0,0,3,1005,473,1,0,0
11,0,0,0,0,1,961,448,1,0,0
12,0,0,0,0,0,451,475,2,0,0
13,0,0,0,0,0,381,453,1,0,0
14,0,0,0,0,3,408,475,1,0,0
15,0,0,0,0,0,428,452,1,0,0
0,0,0,0,0,0,411,476,2,0,0
1,0,0,0,0,0,442,453,1,0,0
2,0,0,0,0,3,430,477,1,0,0
3,0,0,0,0,0,457,453,1,0,0
4,0,0,0,0,0,449,478,1,0,0
5,0,0,0,0,0,479,454,1,0,0
6,0,0,0,0,3,463,478,1,0,0
7,0,0,0,0,1,493,454,1,0,0
8,0,0,0,0,0,480,480,2,0,0
9,0,0,0,0,0,511,457,1,0,0
10,0,0,0,0,1,499,481,1,0,0
11,0,0,0,0,1,529,455,1,0,0
12,0,0,0,0,0,516,479,2,0,0
13,0,0,0,0,0,545,455,1,0,0
14,0,0,0,0,3,524,480,1,0,0
15,0,0,0,0,0,550,455,1,0,0
0,0,0,0,0,0,531,480,2,0,0
1,0,0,0,0,0,555,456,1,0,0
2,0,0,0,0,3,525,479,1,0,0
3,0,0,0,0,0,527,455,1,0,0
4,0,0,0,0,0,483,480,2,0,0
5,0,0,0,0,0,485,455,1,0,0
6,0,0,0,0,3,451,480,1,0,0
7,0,0,0,0,0,466,455,1,0,0
8,0,0,0,0,0,447,480,2,0,0
9,0,0,0,0,0,472,454,1,0,0
10,0,0,0,0,3,455,478,1,0,0
11,0,0,0,0,0,484,451,1,0,0
12,0,0,0,0,0,468,475,2,0,0
13,0,0,0,0,0,496,448,1,0,0
14,0,0,0,0,3,478,472,1,0,0
15,0,0,0,0,0,507,446,1,0,0
0,0,0,0,0,0,489,470,2,0,0
1,0,0,0,0,0,511,445,1,0,0
2,0,0,0,0,3,492,469,1,0,0
3,0,0,0,0,0,513,445,1,0,0
4,0,0,0,0,0,492,467,2,0,0
5,0,0,0,0,0,517,444,1,0,0
6,0,0,0,0,3,497,470,1,0,0
7,0,0,0,0,0,517,445,1,0,0
8,0,0,0,0,0,496,472,2,0,0
9,0,0,0,0,0,516,445,1,0,0
10,0,0,0,0,3,498,472,1,0,0
11,0,0,0,0,0,518,446,1,0,0
12,0,0,0,0,0,497,472,2,0,0
13,0,0,0,0,0,520,448,1,0,0
14,0,0,0,0,3,503,474,1,0,0
15,0,0,0,0,0,527,446,1,0,0
0,0,0,0,0,0,510,473,2,0,0
1,0,0,0,0,0,534,448,1,0,0
2,0,0,0,0,3,512,473,1,0,0
3,0,0,0,0,0,531,448,1,0,0
4,0,0,0,0,0,509,476,2,0,0
5,0,0,0,0,0,529,451,1,0,0
6,0,0,0,0,1,505,477,1,0,0
7,0,0,0,0,0,523,453,1,0,0
8,0,0,0,0,0,503,477,2,0,0
9,0,0,0,0,0,523,454,1,0,0
10,0,0,0,0,3,502,478,1,0,0
11,0,0,0,0,0,523,455,1,0,0
12,0,0,0,0,0,503,479,2,0,0
13,0,0,0,0,0,520,457,1,0,0
14,0,0,0,0,3,510,480,1,0,0
15,0,0,0,0,0,519,458,1,0,0
0,0,0,0,0,0,504,484,2,0,0
1,0,0,0,0,0,529,461,1,0,0
2,0,0,0,0,3,513,486,1,0,0
3,0,0,0,0,0,528,461,2,0,0
4,0,0,0,0,0,505,485,2,0,0
5,0,0,0,0,0,527,461,1,0,0
6,0,0,0,0,3,504,487,1,0,0
7,0,0,0,0,0,525,462,1,0,0
8,0,0,0,0,0,504,485,2,0,0
9,0,0,0,0,0,521,461,2,0,0
10,0,0,0,0,3,457,483,1,0,0
11,0,0,0,0,0,469,459,1,0,0
12,0,0,0,0,0,589,483,2,0,0
13,0,0,0,0,0,990,457,1,0,0
14,0,0,0,0,3,915,480,1,0,0
15,0,0,0,0,0,483,454,1,0,0
0,0,0,0,0,0,366,478,2,0,0
1,0,0,0,0,0,434,453,1,0,0
2,0,0,0,0,3,414,477,2,0,0
3,0,0,0,0,0,439,451,1,0,0
4,0,0,0,0,0,425,474,2,0,0
5,0,0,0,0,0,455,452,1,0,0
6,0,0,0,0,3,440,474,1,0,0
7,0,0,0,0,0,467,451,1,0,0
8,0,0,0,0,0,454,476,2,0,0
9,0,0,0,0,0,483,451,1,0,0
10,0,0,0,0,3,470,476,1,0,0
11,0,0,0,0,0,497,452,1,0,0
12,0,0,0,0,0,483,475,2,0,0
13,0,0,0,0,0,512,451,1,0,0
14,0,0,0,0,3,498,475,1,0,0
15,0,0,0,0,0,527,452,1,0,0
0,0,0,0,0,0,512,476,2,0,0
1,0,0,0,0,0,543,455,2,0,0
2,0,0,0,0,1,523,480,1,0,0
3,0,0,0,0,0,546,455,1,0,0
4,0,0,0,0,0,529,480,2,0,0
5,0,0,0,0,0,543,456,1,0,0
6,0,0,0,0,3,508,481,1,0,0
7,0,0,0,0,0,509,457,2,0,0
8,0,0,0,0,0,473,481,2,0,0
9,0,0,0,0,0,484,457,1,0,0
10,0,0,0,0,3,460,483,1,0,0
11,0,0,0,0,0,480,458,1,0,0
12,0,0,0,0,0,467,483,2,0,0
13,0,0,0,0,0,490,458,1,0,0
14,0,0,0,0,3,472,482,1,0,0
15,0,0,0,0,0,498,459,1,0,0
0,0,0,0,0,0,484,484,2,0,0
1,0,0,0,0,0,505,460,1,0,0
2,0,0,0,0,3,491,483,1,0,0
3,0,0,0,0,0,515,461,2,0,0
4,0,0,0,0,0,497,483,2,0,0
5,0,0,0,0,0,519,459,1,0,0
6,0,0,0,0,0,498,482,2,0,0
7,0,0,0,0,0,521,458,1,0,0
8,0,0,0,0,0,503,483,2,0,0
9,0,0,0,0,0,521,459,1,0,0
10,0,0,0,0,3,505,483,1,0,0
11,0,0,0,0,0,525,459,1,0,0
12,0,0,0,0,0,505,483,2,0,0
13,0,0,0,0,0,523,460,1,0,0
14,0,0,0,0,3,505,481,1,0,0
15,0,0,0,0,0,524,459,2,0,0
0,0,0,0,0,0,505,482,2,0,0
1,0,0,0,0,0,525,458,1,0,0
2,0,0,0,0,3,504,483,2,0,0
3,0,0,0,0,0,522,459,1,0,0
4,0,0,0,0,0,505,482,2,0,0
5,0,0,0,0,0,526,460,2,0,0
6,0,0,0,0,3,507,483,1,0,0
7,0,0,0,0,0,528,458,1,0,0
8,0,0,0,0,0,508,483,2,0,0
9,0,0,0,0,0,525,459,1,0,0
10,0,0,0,0,3,505,482,1,0,0
11,0,0,0,0,0,524,460,1,0,0
12,0,0,0,0,0,503,483,2,0,0
13,0,0,0,0,0,525,460,1,0,0
14,0,0,0,0,3,505,483,2,0,0
15,0,0,0,0,0,527,460,1,0,0
0,0,0,0,0,0,503,482,2,0,0
1,0,0,0,0,0,522,460,2,0,0
2,0,0,0,0,3,503,482,1,0,0
3,0,0,0,0,0,520,459,1,0,0
4,0,0,0,0,0,512,483,2,0,0
5,0,0,0,0,0,533,461,1,0,0
6,0,0,0,0,3,507,483,1,0,0
7,0,0,0,0,0,531,460,1,0,0
8,0,0,0,0,0,506,483,2,0,0
9,0,0,0,0,0,524,460,1,0,0
10,0,0,0,0,3,501,483,1,0,0
11,0,0,0,0,0,525,459,1,0,0
12,0,0,0,0,0,504,482,2,0,0
13,0,0,0,0,0,498,459,2,0,0
14,0,0,0,0,3,451,482,1,0,0
15,0,0,0,0,0,519,459,1,0,0
0,0,0,0,0,0,758,483,2,0,0
1,0,0,0,0,0,1022,459,1,0,0
2,0,0,0,0,1,665,483,1,0,0
3,0,0,0,0,0,396,459,2,0,0
4,0,0,0,0,0,389,482,2,0,0
5,0,0,0,0,0,438,460,1,0,0
6,0,0,0,0,3,419,484,1,0,0
7,0,0,0,0,0,443,460,1,0,0
8,0,0,0,0,0,430,483,2,0,0
9,0,0,0,0,0,455,460,1,0,0
10,0,0,0,0,3,444,484,1,0,0
11,0,0,0,0,0,472,460,1,0,0
12,0,0,0,0,0,462,483,2,0,0
13,0,0,0,0,0,487,460,1,0,0
14,0,0,0,0,3,477,483,1,0,0
15,0,0,0,0,0,502,460,2,0,0
0,0,0,0,0,0,492,483,2,0,0
1,0,0,0,0,0,519,459,1,0,0
2,0,0,0,0,3,506,483,2,0,0
3,0,0,0,0,0,531,459,1,0,0
4,0,0,0,0,0,517,482,2,0,0
5,0,0,0,0,0,540,459,1,0,0
6,0,0,0,0,3,519,483,1,0,0
7,0,0,0,0,0,540,458,1,0,0
8,0,0,0,0,0,521,481,2,0,0
9,0,0,0,0,0,531,457,1,0,0
10,0,0,0,0,3,496,481,1,0,0
11,0,0,0,0,0,500,456,2,0,0
12,0,0,0,0,0,463,480,2,0,0
13,0,0,0,0,0,474,455,1,0,0
14,0,0,0,0,3,450,478,2,0,0
15,0,0,0,0,0,469,455,1,0,0
0,0,0,0,0,0,455,477,2,0,0
1,0,0,0,0,0,483,452,2,0,0
2,0,0,0,0,3,465,476,1,0,0
3,0,0,0,0,0,488,451,1,0,0
4,0,0,0,0,0,473,475,2,0,0
5,0,0,0,0,0,499,448,1,0,0
6,0,0,0,0,3,482,474,1,0,0
7,0,0,0,0,0,509,449,1,0,0
8,0,0,0,0,0,486,474,2,0,0
9,0,0,0,0,0,512,448,1,0,0
10,0,0,0,0,3,492,475,2,0,0
11,0,0,0,0,0,516,450,1,0,0
12,0,0,0,0,0,498,474,2,0,0
13,0,0,0,0,0,518,451,2,0,0
14,0,0,0,0,0,500,476,1,0,0
15,0,0,0,0,0,521,451,1,0,0
0,0,0,0,0,0,500,476,2,0,0
1,0,0,0,0,0,520,453,1,0,0
2,0,0,0,0,3,502,477,1,0,0
3,0,0,0,0,0,523,454,1,0,0
4,0,0,0,0,0,500,478,2,0,0
5,0,0,0,0,0,520,455,1,0,0
6,0,0,0,0,3,503,478,1,0,0
7,0,0,0,0,0,522,456,1,0,0
8,0,0,0,0,0,505,480,2,0,0
9,0,0,0,0,0,524,456,2,0,0
10,0,0,0,0,3,502,480,1,0,0
11,0,0,0,0,0,522,455,1,0,0
12,0,0,0,0,0,507,481,2,0,0
13,0,0,0,0,0,527,455,1,0,0
14,0,0,0,0,3,507,480,1,0,0
15,0,0,0,0,0,525,456,2,0,0
0,0,0,0,0,0,507,481,2,0,0
1,0,0,0,0,0,528,459,1,0,0
2,0,0,0,0,3,505,483,1,0,0
3,0,0,0,0,0,522,459,1,0,0
4,0,0,0,0,0,509,482,2,0,0
5,0,0,0,0,0,522,460,1,0,0
6,0,0,0,0,3,507,483,1,0,0
7,0,0,0,0,0,536,460,1,0,0
8,0,0,0,0,0,515,483,2,0,0
9,0,0,0,0,0,532,460,1,0,0
10,0,0,0,0,3,509,483,1,0,0
11,0,0,0,0,0,527,461,2,0,0
12,0,0,0,0,0,508,483,2,0,0
13,0,0,0,0,0,526,460,1,0,0
14,0,0,0,0,3,507,485,2,0,0
15,0,0,0,0,0,516,459,1,0,0
0,0,0,0,0,0,457,482,2,0,0
1,0,0,0,0,0,499,459,1,0,0
2,0,0,0,0,3,670,481,1,0,0
3,0,0,0,0,0,1022,457,1,0,0
4,0,0,0,0,0,807,480,2,0,0
5,0,0,0,0,0,432,456,1,0,0
6,0,0,0,0,3,359,480,1,0,0
7,0,0,0,0,0,428,457,2,0,0
8,0,0,0,0,0,427,480,2,0,0
9,0,0,0,0,0,453,457,1,0,0
10,0,0,0,0,0,440,482,2,0,0
11,0,0,0,0,0,466,457,1,0,0
12,0,0,0,0,0,456,481,2,0,0
13,0,0,0,0,0,487,456,2,0,0
14,0,0,0,0,3,471,481,1,0,0
15,0,0,0,0,0,500,457,1,0,0
0,0,0,0,0,0,489,480,2,0,0
1,0,0,0,0,0,515,455,1,0,0
2,0,0,0,0,3,502,480,1,0,0
3,0,0,0,0,0,529,455,1,0,0
4,0,0,0,0,0,513,479,2,0,0
5,0,0,0,0,0,539,453,1,0,0
6,0,0,0,0,3,524,476,2,0,0
7,0,0,0,0,0,546,451,1,0,0
8,0,0,0,0,0,527,475,2,0,0
9,0,0,0,0,0,546,449,2,0,0
10,0,0,0,0,3,524,473,1,0,0
11,0,0,0,0,0,537,448,1,0,0
12,0,0,0,0,0,500,474,2,0,0
13,0,0,0,0,0,501,450,1,0,0
14,0,0,0,0,3,461,475,1,0,0
15,0,0,0,0,0,473,451,2,0,0
0,0,0,0,0,0,449,477,2,0,0
1,0,0,0,0,0,472,454,1,0,0
2,0,0,0,0,3,455,478,2,0,0
3,0,0,0,0,0,480,453,1,0,0
4,0,0,0,0,0,465,477,2,0,0
5,0,0,0,0,0,491,452,2,0,0
6,0,0,0,0,3,477,475,1,0,0
7,0,0,0,0,0,499,452,1,0,0
8,0,0,0,0,0,482,478,2,0,0
9,0,0,0,0,0,507,455,1,0,0
10,0,0,0,0,3,487,480,1,0,0
11,0,0,0,0,0,510,458,2,0,0
12,0,0,0,0,0,495,483,2,0,0
13,0,0,0,0,0,515,462,1,0,0
14,0,0,0,0,3,498,484,2,0,0
15,0,0,0,0,0,519,459,1,0,0
0,0,0,0,0,0,500,483,2,0,0
1,0,0,0,0,0,518,457,1,0,0
2,0,0,0,0,3,502,480,1,0,0
3,0,0,0,0,0,520,454,1,0,0
4,0,0,0,0,0,502,479,2,0,0
5,0,0,0,0,0,523,455,1,0,0
6,0,0,0,0,1,502,478,1,0,0
7,0,0,0,0,0,525,453,2,0,0
8,0,0,0,0,0,506,477,2,0,0
9,0,0,0,0,0,526,451,1,0,0
10,0,0,0,0,3,503,474,2,0,0
11,0,0,0,0,0,523,450,1,0,0
12,0,0,0,0,0,502,474,2,0,0
13,0,0,0,0,0,523,449,1,0,0
14,0,0,0,0,3,502,473,1,0,0
15,0,0,0,0,0,525,449,1,0,0
0,0,0,0,0,0,503,474,2,0,0
1,0,0,0,0,0,525,448,1,0,0
2,0,0,0,0,3,502,474,1,0,0
3,0,0,0,0,0,519,450,2,0,0
4,0,0,0,0,0,504,475,2,0,0
5,0,0,0,0,0,518,449,1,0,0
6,0,0,0,0,3,508,475,2,0,0
7,0,0,0,0,0,531,450,1,0,0
8,0,0,0,0,0,510,475,2,0,0
9,0,0,0,0,0,530,451,2,0,0
10,0,0,0,0,3,506,473,1,0,0
11,0,0,0,0,0,524,449,1,0,0
12,0,0,0,0,0,505,473,2,0,0
13,0,0,0,0,0,524,448,1,0,0
14,0,0,0,0,3,503,472,1,0,0
15,0,0,0,0,0,504,448,1,0,0
0,0,0,0,0,0,454,471,2,0,0
1,0,0,0,0,0,517,446,1,0,0
2,0,0,0,0,3,739,472,2,0,0
3,0,0,0,0,0,1022,446,1,0,0
4,0,0,0,0,0,709,472,2,0,0
5,0,0,0,0,0,387,447,1,0,0
6,0,0,0,0,3,372,471,1,0,0
7,0,0,0,0,0,430,449,1,0,0
8,0,0,0,0,0,412,474,2,0,0
9,0,0,0,0,0,438,449,1,0,0
10,0,0,0,0,3,426,473,1,0,0
11,0,0,0,0,0,460,448,1,0,0
12,0,0,0,0,0,452,472,2,0,0
13,0,0,0,0,0,480,447,1,0,0
14,0,0,0,0,3,470,470,1,0,0
15,0,0,0,0,0,499,446,1,0,0
0,0,0,0,0,0,485,471,2,0,0
1,0,0,0,0,0,515,447,1,0,0
2,0,0,0,0,0,499,471,1,0,0
3,0,0,0,0,0,527,448,1,0,0
4,0,0,0,0,0,510,471,2,0,0
5,0,0,0,0,0,536,447,1,0,0
6,0,0,0,0,3,520,472,1,0,0
7,0,0,0,0,0,543,449,1,0,0
8,0,0,0,0,0,522,473,2,0,0
9,0,0,0,0,0,543,450,1,0,0
10,0,0,0,0,3,522,475,1,0,0
11,0,0,0,0,0,535,450,1,0,0
12,0,0,0,0,0,496,475,2,0,0
13,0,0,0,0,0,498,453,1,0,0
14,0,0,0,0,3,463,477,1,0,0
15,0,0,0,0,0,475,454,1,0,0
0,0,0,0,0,0,452,479,2,0,0
1,0,0,0,0,0,475,457,1,0,0
2,0,0,0,0,3,455,481,1,0,0
3,0,0,0,0,0,483,457,1,0,0
4,0,0,0,0,0,468,482,2,0,0
5,0,0,0,0,0,497,456,1,0,0
6,0,0,0,0,3,480,480,2,0,0
7,0,0,0,0,0,504,455,1,0,0
8,0,0,0,0,0,489,477,2,0,0
9,0,0,0,0,0,512,453,1,0,0
10,0,0,0,0,3,495,477,1,0,0
11,0,0,0,0,0,516,451,1,0,0
12,0,0,0,0,0,500,477,2,0,0
13,0,0,0,0,0,525,451,1,0,0
14,0,0,0,0,3,503,476,1,0,0
15,0,0,0,0,0,525,452,1,0,0
0,0,0,0,0,0,502,476,2,0,0
1,0,0,0,0,0,523,449,1,0,0
2,0,0,0,0,3,499,473,1,0,0
3,0,0,0,0,0,518,450,1,0,0
4,0,0,0,0,0,500,474,2,0,0
5,0,0,0,0,0,516,449,1,0,0
6,0,0,0,0,3,501,472,1,0,0
7,0,0,0,0,0,524,449,1,0,0
8,0,0,0,0,0,500,476,2,0,0
9,0,0,0,0,0,523,451,1,0,0
10,0,0,0,0,3,504,474,1,0,0
11,0,0,0,0,0,523,452,1,0,0
12,0,0,0,0,0,507,477,2,0,0
13,0,0,0,0,0,527,452,1,0,0
14,0,0,0,0,0,506,476,2,0,0
15,0,0,0,0,0,524,453,1,0,0
0,0,0,0,0,0,504,477,2,0,0
1,0,0,0,0,0,517,455,1,0,0
2,0,0,0,0,3,498,480,1,0,0
3,0,0,0,0,0,521,456,1,0,0
4,0,0,0,0,0,495,481,2,0,0
5,0,0,0,0,0,527,458,1,0,0
6,0,0,0,0,3,510,481,1,0,0
7,0,0,0,0,0,527,459,1,0,0
8,0,0,0,0,0,511,481,2,0,0
9,0,0,0,0,0,527,460,1,0,0
10,0,0,0,0,3,503,484,1,0,0
11,0,0,0,0,0,525,460,1,0,0
12,0,0,0,0,0,504,484,2,0,0
13,0,0,0,0,0,525,461,1,0,0
14,0,0,0,0,3,477,485,1,0,0
15,0,0,0,0,0,474,462,1,0,0
0,0,0,0,0,0,526,486,2,0,0
1,0,0,0,0,0,832,462,1,0,0
2,0,0,0,0,1,1021,485,1,0,0
3,0,0,0,0,0,642,463,1,0,0
4,0,0,0,0,0,361,484,2,0,0
5,0,0,0,0,0,415,462,1,0,0
6,0,0,0,0,3,418,484,2,0,0
7,0,0,0,0,0,439,461,1,0,0
8,0,0,0,0,0,428,484,2,0,0
9,0,0,0,0,0,459,460,1,0,0
10,0,0,0,0,3,444,483,1,0,0
11,0,0,0,0,0,472,460,1,0,0
12,0,0,0,0,0,462,483,2,0,0
13,0,0,0,0,0,489,459,1,0,0
14,0,0,0,0,3,476,483,1,0,0
15,0,0,0,0,0,504,459,1,0,0
0,0,0,0,0,0,490,482,2,0,0
1,0,0,0,0,0,519,458,1,0,0
2,0,0,0,0,3,505,481,1,0,0
3,0,0,0,0,0,531,456,1,0,0
4,0,0,0,0,0,517,480,2,0,0
5,0,0,0,0,0,549,455,1,0,0
6,0,0,0,0,3,531,479,1,0,0
7,0,0,0,0,0,548,455,1,0,0
8,0,0,0,0,0,533,479,2,0,0
9,0,0,0,0,0,546,456,1,0,0
10,0,0,0,0,3,512,480,1,0,0
11,0,0,0,0,0,513,457,1,0,0
12,0,0,0,0,0,471,481,2,0,0
13,0,0,0,0,0,479,458,1,0,0
14,0,0,0,0,3,452,482,1,0,0
15,0,0,0,0,0,471,456,1,0,0
0,0,0,0,0,0,452,480,2,0,0
1,0,0,0,0,0,476,457,1,0,0
2,0,0,0,0,3,461,480,1,0,0
3,0,0,0,0,0,488,455,1,0,0
4,0,0,0,0,0,472,478,2,0,0
5,0,0,0,0,0,497,455,1,0,0
6,0,0,0,0,3,481,478,1,0,0
7,0,0,0,0,0,505,457,1,0,0
8,0,0,0,0,0,487,478,2,0,0
9,0,0,0,0,0,511,455,1,0,0
10,0,0,0,0,3,496,479,1,0,0
11,0,0,0,0,0,517,455,1,0,0
12,0,0,0,0,0,502,478,2,0,0
13,0,0,0,0,0,520,454,1,0,0
14,0,0,0,0,1,500,479,1,0,0
15,0,0,0,0,0,523,454,1,0,0
0,0,0,0,0,0,502,478,2,0,0
1,0,0,0,0,0,520,453,1,0,0
2,0,0,0,0,3,498,478,1,0,0
3,0,0,0,0,0,519,453,1,0,0
4,0,0,0,0,0,498,477,2,0,0
5,0,0,0,0,0,519,452,1,0,0
6,0,0,0,0,3,502,478,1,0,0
7,0,0,0,0,0,522,454,1,0,0
8,0,0,0,0,0,502,478,2,0,0
9,0,0,0,0,1,521,454,1,0,0
10,0,0,0,0,3,501,478,1,0,0
11,0,0,0,0,0,524,454,1,0,0
12,0,0,0,0,0,503,478,2,0,0
13,0,0,0,0,0,525,454,1,0,0
14,0,0,0,0,3,504,478,1,0,0
15,0,0,0,0,0,524,452,1,0,0
0,0,0,0,0,0,502,478,2,0,0
1,0,0,0,0,0,527,454,1,0,0
2,0,0,0,0,3,495,477,1,0,0
3,0,0,0,0,0,525,453,1,0,0
4,0,0,0,0,0,508,478,2,0,0
5,0,0,0,0,1,530,453,1,0,0
6,0,0,0,0,3,502,478,1,0,0
7,0,0,0,0,0,524,453,1,0,0
8,0,0,0,0,0,499,478,2,0,0
9,0,0,0,0,0,515,454,1,0,0
10,0,0,0,0,3,500,478,1,0,0
11,0,0,0,0,1,523,455,1,0,0
12,0,0,0,0,0,497,477,2,0,0
13,0,0,0,0,0,477,452,1,0,0
14,0,0,0,0,3,451,476,1,0,0
15,0,0,0,0,0,626,450,1,0,0
0,0,0,0,0,0,995,475,2,0,0
1,0,0,0,0,0,898,451,1,0,0
2,0,0,0,0,3,445,475,1,0,0
3,0,0,0,0,0,376,450,1,0,0
4,0,0,0,0,0,402,475,2,0,0
5,0,0,0,0,0,432,450,1,0,0
6,0,0,0,0,3,417,473,1,0,0
7,0,0,0,0,1,447,450,1,0,0
8,0,0,0,0,0,436,473,2,0,0
9,0,0,0,0,0,465,448,1,0,0
10,0,0,0,0,1,454,473,1,0,0
11,0,0,0,0,0,483,450,1,0,0
12,0,0,0,0,0,473,475,2,0,0
13,0,0,0,0,1,499,451,1,0,0
14,0,0,0,0,3,491,476,1,0,0
15,0,0,0,0,0,518,450,1,0,0
0,0,0,0,0,0,503,477,2,0,0
1,0,0,0,0,0,532,453,1,0,0
2,0,0,0,0,3,519,477,1,0,0
3,0,0,0,0,1,545,451,1,0,0
4,0,0,0,0,0,529,475,2,0,0
5,0,0,0,0,0,547,451,1,0,0
6,0,0,0,0,3,531,476,1,0,0
7,0,0,0,0,0,550,452,1,0,0
8,0,0,0,0,0,523,477,2,0,0
9,0,0,0,0,1,523,452,1,0,0
10,0,0,0,0,3,484,478,1,0,0
11,0,0,0,0,0,491,453,1,0,0
12,0,0,0,0,0,457,478,2,0,0
13,0,0,0,0,0,472,453,1,0,0
14,0,0,0,0,3,454,477,1,0,0
15,0,0,0,0,1,475,452,1,0,0
0,0,0,0,0,0,463,476,2,0,0
1,0,0,0,0,0,487,452,1,0,0
2,0,0,0,0,3,472,476,1,0,0
3,0,0,0,0,0,497,450,1,0,0
4,0,0,0,0,0,480,475,2,0,0
5,0,0,0,0,1,505,450,1,0,0
6,0,0,0,0,3,492,474,1,0,0
7,0,0,0,0,0,514,448,1,0,0
8,0,0,0,0,0,494,473,2,0,0
9,0,0,0,0,0,516,448,1,0,0
10,0,0,0,0,3,499,471,1,0,0
11,0,0,0,0,1,518,445,1,0,0
12,0,0,0,0,0,502,470,2,0,0
13,0,0,0,0,0,521,446,1,0,0
14,0,0,0,0,3,497,472,1,0,0
15,0,0,0,0,0,519,449,1,0,0
0,0,0,0,0,0,500,472,2,0,0
1,0,0,0,0,1,525,447,1,0,0
2,0,0,0,0,3,505,471,1,0,0
3,0,0,0,0,0,527,444,1,0,0
4,0,0,0,0,0,508,471,2,0,0
5,0,0,0,0,0,532,445,1,0,0
6,0,0,0,0,1,508,469,1,0,0
7,0,0,0,0,1,529,444,1,0,0
8,0,0,0,0,0,504,469,2,0,0
9,0,0,0,0,0,527,444,1,0,0
10,0,0,0,0,3,504,469,1,0,0
11,0,0,0,0,0,519,445,1,0,0
12,0,0,0,0,0,510,470,2,0,0
13,0,0,0,0,1,520,445,1,0,0
14,0,0,0,0,3,502,470,1,0,0
15,0,0,0,0,0,527,447,1,0,0
0,0,0,0,0,0,511,473,1,0,0
1,0,0,0,0,0,525,452,1,0,0
2,0,0,0,0,3,507,476,1,0,0
3,0,0,0,0,1,523,451,1,0,0
4,0,0,0,0,0,499,476,2,0,0
5,0,0,0,0,0,521,451,1,0,0
6,0,0,0,0,3,505,475,1,0,0
7,0,0,0,0,0,525,450,1,0,0
8,0,0,0,0,0,473,474,2,0,0
9,0,0,0,0,1,472,451,1,0,0
10,0,0,0,0,3,529,475,1,0,0
11,0,0,0,0,0,835,451,1,0,0
12,0,0,0,0,0,1019,473,2,0,0
13,0,0,0,0,0,659,450,1,0,0
14,0,0,0,0,3,360,473,1,0,0
15,0,0,0,0,1,396,451,1,0,0
0,0,0,0,0,0,414,476,2,0,0
1,0,0,0,0,0,442,453,1,0,0
2,0,0,0,0,3,428,478,1,0,0
3,0,0,0,0,0,459,455,1,0,0
4,0,0,0,0,0,451,479,2,0,0
5,0,0,0,0,0,483,452,1,0,0
6,0,0,0,0,3,474,476,1,0,0
7,0,0,0,0,0,502,451,1,0,0
8,0,0,0,0,0,489,475,1,0,0
9,0,0,0,0,0,518,451,1,0,0
10,0,0,0,0,3,502,476,1,0,0
11,0,0,0,0,1,526,452,1,0,0
12,0,0,0,0,0,515,477,2,0,0
13,0,0,0,0,0,541,451,1,0,0
14,0,0,0,0,3,528,475,1,0,0
15,0,0,0,0,0,547,450,1,0,0
0,0,0,0,0,0,529,474,2,0,0
1,0,0,0,0,1,549,447,1,0,0
2,0,0,0,0,1,526,472,1,0,0
3,0,0,0,0,0,539,448,1,0,0
4,0,0,0,0,0,504,475,1,0,0
5,0,0,0,0,0,502,452,1,0,0
6,0,0,0,0,3,468,478,1,0,0
7,0,0,0,0,1,477,456,1,0,0
8,0,0,0,0,0,452,480,2,0,0
9,0,0,0,0,0,472,457,1,0,0
10,0,0,0,0,3,455,479,1,0,0
11,0,0,0,0,0,480,455,1,0,0
12,0,0,0,0,0,465,478,2,0,0
13,0,0,0,0,1,488,454,1,0,0
14,0,0,0,0,3,473,476,1,0,0
15,0,0,0,0,0,497,451,1,0,0
0,0,0,0,0,0,482,475,1,0,0
1,0,0,0,0,0,504,450,1,0,0
2,0,0,0,0,3,488,473,1,0,0
3,0,0,0,0,1,512,449,1,0,0
4,0,0,0,0,0,495,474,2,0,0
5,0,0,0,0,0,516,449,1,0,0
6,0,0,0,0,3,496,472,1,0,0
7,0,0,0,0,0,519,449,1,0,0
8,0,0,0,0,0,500,474,2,0,0
9,0,0,0,0,1,517,449,1,0,0
10,0,0,0,0,3,499,474,1,0,0
11,0,0,0,0,0,516,451,1,0,0
12,0,0,0,0,0,498,475,1,0,0
13,0,0,0,0,0,521,450,1,0,0
14,0,0,0,0,3,503,475,1,0,0
15,0,0,0,0,1,524,448,1,0,0
0,0,0,0,0,0,505,472,2,0,0
1,0,0,0,0,0,524,446,1,0,0
2,0,0,0,0,3,502,470,1,0,0
3,0,0,0,0,0,523,446,1,0,0
4,0,0,0,0,0,504,471,2,0,0
5,0,0,0,0,0,524,445,1,0,0
6,0,0,0,0,3,504,471,1,0,0
7,0,0,0,0,0,522,445,1,0,0
8,0,0,0,0,0,507,470,1,0,0
9,0,0,0,0,0,527,445,1,0,0
10,0,0,0,0,3,495,469,1,0,0
11,0,0,0,0,1,524,443,1,0,0
12,0,0,0,0,0,512,468,2,0,0
13,0,0,0,0,0,525,443,1,0,0
14,0,0,0,0,1,500,468,1,0,0
15,0,0,0,0,0,518,445,1,0,0
0,0,0,0,0,0,496,469,2,0,0
1,0,0,0,0,1,515,446,1,0,0
2,0,0,0,0,3,496,471,1,0,0
3,0,0,0,0,0,520,447,1,0,0
4,0,0,0,0,0,481,472,1,0,0
5,0,0,0,0,0,477,449,1,0,0
6,0,0,0,0,3,497,472,1,0,0
7,0,0,0,0,1,752,448,1,0,0
8,0,0,0,0,0,1022,473,2,0,0
9,0,0,0,0,0,739,449,1,0,0
10,0,0,0,0,3,372,473,1,0,0
11,0,0,0,0,0,399,448,1,0,0
12,0,0,0,0,0,415,473,2,0,0
13,0,0,0,0,1,437,448,1,0,0
14,0,0,0,0,3,422,471,1,0,0
15,0,0,0,0,0,455,446,1,0,0
0,0,0,0,0,0,441,470,1,0,0
1,0,0,0,0,0,471,445,1,0,0
2,0,0,0,0,1,459,470,1,0,0
3,0,0,0,0,1,487,444,1,0,0
4,0,0,0,0,0,476,469,2,0,0
5,0,0,0,0,0,504,444,1,0,0
6,0,0,0,0,3,489,467,1,0,0
7,0,0,0,0,0,518,443,1,0,0
8,0,0,0,0,0,506,468,2,0,0
9,0,0,0,0,1,532,440,1,0,0
10,0,0,0,0,3,519,467,1,0,0
11,0,0,0,0,0,546,442,1,0,0
12,0,0,0,0,0,526,466,1,0,0
13,0,0,0,0,0,548,443,1,0,0
14,0,0,0,0,3,529,469,1,0,0
15,0,0,0,0,1,543,444,1,0,0
0,0,0,0,0,0,513,470,2,0,0
1,0,0,0,0,0,515,446,1,0,0
2,0,0,0,0,3,476,470,1,0,0
3,0,0,0,0,0,482,447,1,0,0
4,0,0,0,0,0,452,471,2,0,0
5,0,0,0,0,0,474,447,1,0,0
6,0,0,0,0,3,453,472,1,0,0
7,0,0,0,0,0,478,448,1,0,0
8,0,0,0,0,0,462,473,1,0,0
9,0,0,0,0,0,484,451,1,0,0
10,0,0,0,0,1,474,476,1,0,0
11,0,0,0,0,1,497,451,1,0,0
12,0,0,0,0,0,480,476,2,0,0
13,0,0,0,0,0,503,453,1,0,0
14,0,0,0,0,3,491,477,1,0,0
15,0,0,0,0,0,513,453,1,0,0
0,0,0,0,0,0,500,476,2,0,0
1,0,0,0,0,0,523,454,1,0,0
2,0,0,0,0,3,505,478,1,0,0
3,0,0,0,0,0,523,452,1,0,0
4,0,0,0,0,0,505,476,1,0,0
5,0,0,0,0,0,525,451,1,0,0
6,0,0,0,0,3,505,474,1,0,0
7,0,0,0,0,0,522,449,1,0,0
8,0,0,0,0,0,502,473,2,0,0
9,0,0,0,0,0,521,448,1,0,0
10,0,0,0,0,3,504,472,1,0,0
11,0,0,0,0,0,526,447,1,0,0
12,0,0,0,0,0,505,471,2,0,0
13,0,0,0,0,0,523,447,1,0,0
14,0,0,0,0,0,505,470,1,0,0
15,0,0,0,0,0,523,444,1,0,0
0,0,0,0,0,0,504,469,1,0,0
1,0,0,0,0,0,523,446,1,0,0
2,0,0,0,0,3,502,469,1,0,0
3,0,0,0,0,0,520,446,1,0,0
4,0,0,0,0,0,499,470,2,0,0
5,0,0,0,0,0,522,447,1,0,0
6,0,0,0,0,3,507,471,1,0,0
7,0,0,0,0,0,517,448,1,0,0
8,0,0,0,0,0,507,472,2,0,0
9,0,0,0,0,1,528,448,1,0,0
10,0,0,0,0,3,509,473,1,0,0
11,0,0,0,0,0,524,449,1,0,0
12,0,0,0,0,0,508,472,1,0,0
13,0,0,0,0,0,521,450,1,0,0
14,0,0,0,0,3,497,473,1,0,0
15,0,0,0,0,0,516,452,1,0,0
0,0,0,0,0,0,499,476,2,0,0
1,0,0,0,0,0,513,453,1,0,0
2,0,0,0,0,3,455,477,1,0,0
3,0,0,0,0,0,472,454,1,0,0
4,0,0,0,0,0,606,477,2,0,0
5,0,0,0,0,0,1017,454,1,0,0
6,0,0,0,0,3,891,477,1,0,0
7,0,0,0,0,0,463,454,1,0,0
8,0,0,0,0,0,356,477,1,0,0
9,0,0,0,0,0,427,454,1,0,0
10,0,0,0,0,3,416,478,1,0,0
11,0,0,0,0,1,438,453,1,0,0
12,0,0,0,0,0,429,478,2,0,0
13,0,0,0,0,0,460,453,1,0,0
14,0,0,0,0,3,449,476,1,0,0
15,0,0,0,0,0,476,453,1,0,0
0,0,0,0,0,0,464,476,2,0,0
1,0,0,0,0,0,491,454,1,0,0
2,0,0,0,0,3,478,478,1,0,0
3,0,0,0,0,0,504,455,1,0,0
4,0,0,0,0,0,498,478,1,0,0
5,0,0,0,0,0,520,457,1,0,0
6,0,0,0,0,3,510,481,1,0,0
7,0,0,0,0,0,538,461,1,0,0
8,0,0,0,0,0,530,483,2,0,0
9,0,0,0,0,0,555,460,1,0,0
10,0,0,0,0,1,538,482,1,0,0
11,0,0,0,0,0,557,461,1,0,0
12,0,0,0,0,0,537,483,2,0,0
13,0,0,0,0,0,545,460,1,0,0
14,0,0,0,0,3,507,483,1,0,0
15,0,0,0,0,0,502,462,1,0,0
0,0,0,0,0,0,464,484,1,0,0
1,0,0,0,0,0,473,462,1,0,0
2,0,0,0,0,3,449,486,1,0,0
3,0,0,0,0,0,464,463,1,0,0
4,0,0,0,0,0,453,486,2,0,0
5,0,0,0,0,0,476,464,1,0,0
6,0,0,0,0,3,463,486,1,0,0
7,0,0,0,0,0,487,464,1,0,0
8,0,0,0,0,0,475,487,2,0,0
9,0,0,0,0,0,497,464,1,0,0
10,0,0,0,0,3,484,487,1,0,0
11,0,0,0,0,0,510,464,1,0,0
12,0,0,0,0,0,494,486,1,0,0
13,0,0,0,0,0,514,464,1,0,0
14,0,0,0,0,3,500,485,1,0,0
15,0,0,0,0,0,521,461,1,0,0
0,0,0,0,0,0,502,483,2,0,0
1,0,0,0,0,0,524,459,1,0,0
2,0,0,0,0,3,507,478,1,0,0
3,0,0,0,0,0,525,454,1,0,0
4,0,0,0,0,0,503,477,2,0,0
5,0,0,0,0,0,523,450,1,0,0
6,0,0,0,0,3,501,476,1,0,0
7,0,0,0,0,0,522,450,1,0,0
8,0,0,0,0,0,500,475,1,0,0
9,0,0,0,0,0,519,451,1,0,0
10,0,0,0,0,3,499,475,1,0,0
11,0,0,0,0,0,519,451,1,0,0
12,0,0,0,0,0,502,474,2,0,0
13,0,0,0,0,0,523,452,1,0,0
14,0,0,0,0,3,503,475,1,0,0
15,0,0,0,0,0,525,450,1,0,0
0,0,0,0,0,0,507,475,2,0,0
1,0,0,0,0,0,525,449,1,0,0
2,0,0,0,0,3,504,473,1,0,0
3,0,0,0,0,0,528,448,1,0,0
4,0,0,0,0,0,513,472,1,0,0
5,0,0,0,0,0,525,448,1,0,0
6,0,0,0,0,1,511,473,1,0,0
7,0,0,0,0,0,534,447,1,0,0
8,0,0,0,0,0,506,470,2,0,0
9,0,0,0,0,0,526,445,1,0,0
10,0,0,0,0,3,502,467,1,0,0
11,0,0,0,0,0,516,443,1,0,0
12,0,0,0,0,0,495,468,2,0,0
13,0,0,0,0,0,514,442,1,0,0
14,0,0,0,0,3,496,466,1,0,0
15,0,0,0,0,0,508,442,1,0,0
0,0,0,0,0,0,452,467,1,0,0
1,0,0,0,0,0,484,444,1,0,0
2,0,0,0,0,3,642,468,1,0,0
3,0,0,0,0,0,1022,446,1,0,0
4,0,0,0,0,0,853,469,2,0,0
5,0,0,0,0,0,440,446,1,0,0
6,0,0,0,0,3,353,470,1,0,0
7,0,0,0,0,0,423,447,1,0,0
8,0,0,0,0,0,422,471,2,0,0
9,0,0,0,0,0,448,447,1,0,0
10,0,0,0,0,3,435,471,1,0,0
11,0,0,0,0,0,465,448,1,0,0
12,0,0,0,0,0,455,472,1,0,0
13,0,0,0,0,0,485,450,1,0,0
14,0,0,0,0,3,475,476,1,0,0
15,0,0,0,0,0,501,452,1,0,0
0,0,0,0,0,0,489,475,2,0,0
1,0,0,0,0,0,515,452,1,0,0
2,0,0,0,0,3,504,476,1,0,0
3,0,0,0,0,0,530,453,1,0,0
4,0,0,0,0,0,518,476,2,0,0
5,0,0,0,0,0,544,453,1,0,0
6,0,0,0,0,3,532,477,1,0,0
7,0,0,0,0,0,557,455,1,0,0
8,0,0,0,0,0,538,478,1,0,0
9,0,0,0,0,0,555,456,1,0,0
10,0,0,0,0,3,533,481,1,0,0
11,0,0,0,0,0,540,458,1,0,0
12,0,0,0,0,0,497,482,2,0,0
13,0,0,0,0,0,494,460,1,0,0
14,0,0,0,0,3,460,482,1,0,0
15,0,0,0,0,0,467,460,1,0,0
0,0,0,0,0,0,446,482,2,0,0
1,0,0,0,0,0,467,461,1,0,0
2,0,0,0,0,0,453,483,1,0,0
3,0,0,0,0,0,475,462,1,0,0
4,0,0,0,0,0,465,484,1,0,0
5,0,0,0,0,0,487,463,1,0,0
6,0,0,0,0,3,474,486,1,0,0
7,0,0,0,0,0,496,462,1,0,0
8,0,0,0,0,0,482,484,2,0,0
9,0,0,0,0,0,508,463,1,0,0
10,0,0,0,0,3,497,484,1,0,0
11,0,0,0,0,0,515,464,1,0,0
12,0,0,0,0,0,499,485,2,0,0
13,0,0,0,0,0,522,462,1,0,0
14,0,0,0,0,3,507,485,1,0,0
15,0,0,0,0,0,522,463,1,0,0
0,0,0,0,0,0,504,485,1,0,0
1,0,0,0,0,0,520,462,1,0,0
2,0,0,0,0,3,502,484,1,0,0
3,0,0,0,0,0,519,462,1,0,0
4,0,0,0,0,0,500,484,2,0,0
5,0,0,0,0,0,519,462,1,0,0
6,0,0,0,0,3,500,484,1,0,0
7,0,0,0,0,0,522,463,1,0,0
8,0,0,0,0,0,504,485,2,0,0
9,0,0,0,0,0,523,463,1,0,0
10,0,0,0,0,3,505,484,1,0,0
11,0,0,0,0,0,522,463,1,0,0
12,0,0,0,0,0,505,484,1,0,0
13,0,0,0,0,0,524,465,1,0,0
14,0,0,0,0,3,504,487,1,0,0
15,0,0,0,0,0,520,463,1,0,0
0,0,0,0,0,0,505,485,2,0,0
1,0,0,0,0,0,523,463,1,0,0
2,0,0,0,0,3,508,484,1,0,0
3,0,0,0,0,0,527,463,1,0,0
4,0,0,0,0,0,506,484,2,0,0
5,0,0,0,0,0,523,462,1,0,0
6,0,0,0,0,3,505,484,1,0,0
7,0,0,0,0,0,521,463,1,0,0
8,0,0,0,0,0,505,485,1,0,0
9,0,0,0,0,0,531,462,1,0,0
10,0,0,0,0,3,502,483,1,0,0
11,0,0,0,0,1,531,460,1,0,0
12,0,0,0,0,0,515,482,2,0,0
13,0,0,0,0,0,533,460,1,0,0
14,0,0,0,0,1,505,481,1,0,0
15,0,0,0,0,0,523,457,1,0,0
0,0,0,0,0,0,499,479,2,0,0
1,0,0,0,0,0,516,455,1,0,0
2,0,0,0,0,3,495,478,1,0,0
3,0,0,0,0,0,515,451,1,0,0
4,0,0,0,0,0,498,475,1,0,0
5,0,0,0,0,0,480,450,1,0,0
6,0,0,0,0,3,454,473,1,0,0
7,0,0,0,0,0,594,448,1,0,0
8,0,0,0,0,0,946,474,2,0,0
9,0,0,0,0,0,992,451,1,0,0
10,0,0,0,0,3,502,476,1,0,0
11,0,0,0,0,0,364,454,1,0,0
12,0,0,0,0,0,396,477,2,0,0
13,0,0,0,0,0,427,455,1,0,0
14,0,0,0,0,3,413,478,1,0,0
15,0,0,0,0,0,440,455,1,0,0
0,0,0,0,0,0,431,478,1,0,0
1,0,0,0,0,0,460,455,1,0,0
2,0,0,0,0,3,448,477,1,0,0
3,0,0,0,0,0,479,455,1,0,0
4,0,0,0,0,0,470,477,2,0,0
5,0,0,0,0,0,496,454,1,0,0
6,0,0,0,0,3,484,479,1,0,0
7,0,0,0,0,0,509,455,1,0,0
8,0,0,0,0,0,498,479,2,0,0
9,0,0,0,0,0,526,459,1,0,0
10,0,0,0,0,3,511,480,1,0,0
11,0,0,0,0,0,539,458,1,0,0
12,0,0,0,0,0,527,480,2,0,0
13,0,0,0,0,0,550,458,1,0,0
14,0,0,0,0,3,534,480,1,0,0
15,0,0,0,0,0,554,459,1,0,0
0,0,0,0,0,0,529,481,2,0,0
1,0,0,0,0,0,530,459,1,0,0
2,0,0,0,0,3,488,482,1,0,0
3,0,0,0,0,0,487,459,1,0,0
4,0,0,0,0,0,450,481,2,0,0
5,0,0,0,0,0,464,459,1,0,0
6,0,0,0,0,3,444,481,1,0,0
7,0,0,0,0,0,468,457,1,0,0
8,0,0,0,0,0,456,480,2,0,0
9,0,0,0,0,0,478,457,1,0,0
10,0,0,0,0,0,468,478,1,0,0
11,0,0,0,0,1,492,456,1,0,0
12,0,0,0,0,0,477,479,2,0,0
13,0,0,0,0,0,503,458,1,0,0
14,0,0,0,0,3,488,480,1,0,0
15,0,0,0,0,0,510,458,1,0,0
0,0,0,0,0,0,493,481,2,0,0
1,0,0,0,0,0,515,457,1,0,0
2,0,0,0,0,3,501,481,1,0,0
3,0,0,0,0,0,523,459,1,0,0
4,0,0,0,0,0,505,480,2,0,0
5,0,0,0,0,0,521,458,1,0,0
6,0,0,0,0,3,503,481,1,0,0
7,0,0,0,0,0,517,459,1,0,0
8,0,0,0,0,0,499,480,2,0,0
9,0,0,0,0,0,518,457,1,0,0
10,0,0,0,0,3,500,478,1,0,0
11,0,0,0,0,0,521,456,1,0,0
12,0,0,0,0,0,502,477,2,0,0
13,0,0,0,0,1,522,454,1,0,0
14,0,0,0,0,1,504,476,1,0,0
15,0,0,0,0,0,523,451,1,0,0
0,0,0,0,0,0,504,475,2,0,0
1,0,0,0,0,0,522,453,1,0,0
2,0,0,0,0,3,503,475,1,0,0
3,0,0,0,0,0,520,453,1,0,0
4,0,0,0,0,0,502,476,2,0,0
5,0,0,0,0,0,519,454,1,0,0
6,0,0,0,0,3,499,476,1,0,0
7,0,0,0,0,0,518,452,1,0,0
8,0,0,0,0,0,500,473,2,0,0
9,0,0,0,0,0,519,451,1,0,0
10,0,0,0,0,3,503,473,1,0,0
11,0,0,0,0,0,522,451,1,0,0
12,0,0,0,0,0,504,475,2,0,0
13,0,0,0,0,0,520,453,1,0,0
14,0,0,0,0,3,504,475,1,0,0
15,0,0,0,0,1,525,455,1,0,0
0,0,0,0,0,0,506,477,2,0,0
1,0,0,0,0,0,522,456,1,0,0
2,0,0,0,0,3,504,477,1,0,0
3,0,0,0,0,0,522,455,1,0,0
4,0,0,0,0,0,506,478,2,0,0
5,0,0,0,0,0,515,457,1,0,0
6,0,0,0,0,0,510,479,1,0,0
7,0,0,0,0,0,530,456,1,0,0
8,0,0,0,0,0,510,479,2,0,0
9,0,0,0,0,0,525,457,1,0,0
10,0,0,0,0,3,504,479,1,0,0
11,0,0,0,0,0,520,457,1,0,0
12,0,0,0,0,0,501,479,2,0,0
13,0,0,0,0,0,518,457,1,0,0
14,0,0,0,0,3,504,480,2,0,0
15,0,0,0,0,0,519,457,1,0,0
0,0,0,0,0,0,459,479,2,0,0
1,0,0,0,0,0,470,456,1,0,0
2,0,0,0,0,3,593,479,1,0,0
3,0,0,0,0,0,998,456,1,0,0
4,0,0,0,0,0,935,477,2,0,0
5,0,0,0,0,0,492,455,1,0,0
6,0,0,0,0,3,350,477,1,0,0
7,0,0,0,0,0,415,453,1,0,0
8,0,0,0,0,0,414,475,2,0,0
9,0,0,0,0,0,439,453,1,0,0
10,0,0,0,0,1,431,476,2,0,0
11,0,0,0,0,0,455,454,1,0,0
12,0,0,0,0,0,444,472,2,0,0
13,0,0,0,0,0,475,452,1,0,0
14,0,0,0,0,3,464,474,1,0,0
15,0,0,0,0,0,493,452,1,0,0
0,0,0,0,0,0,482,474,2,0,0
1,0,0,0,0,0,505,451,1,0,0
2,0,0,0,0,3,494,473,1,0,0
3,0,0,0,0,0,522,452,1,0,0
4,0,0,0,0,0,511,473,2,0,0
5,0,0,0,0,0,537,452,1,0,0
6,0,0,0,0,3,529,474,2,0,0
7,0,0,0,0,0,552,452,1,0,0
8,0,0,0,0,0,537,475,2,0,0
9,0,0,0,0,1,556,453,1,0,0
10,0,0,0,0,3,538,476,1,0,0
11,0,0,0,0,0,548,454,1,0,0
12,0,0,0,0,0,511,476,2,0,0
13,0,0,0,0,0,502,453,1,0,0
14,0,0,0,0,3,464,476,1,0,0
15,0,0,0,0,1,466,455,1,0,0
0,0,0,0,0,0,442,478,2,0,0
1,0,0,0,0,0,457,456,1,0,0
2,0,0,0,0,3,443,478,2,0,0
3,0,0,0,0,0,468,456,1,0,0
4,0,0,0,0,0,459,479,2,0,0
5,0,0,0,0,1,482,455,2,0,0
6,0,0,0,0,3,468,478,1,0,0
7,0,0,0,0,0,493,457,1,0,0
8,0,0,0,0,0,480,479,2,0,0
9,0,0,0,0,0,504,458,1,0,0
10,0,0,0,0,3,490,479,1,0,0
11,0,0,0,0,0,512,459,2,0,0
12,0,0,0,0,0,494,481,2,0,0
13,0,0,0,0,0,516,460,1,0,0
14,0,0,0,0,3,503,483,2,0,0
15,0,0,0,0,0,521,463,1,0,0
0,0,0,0,0,0,507,484,2,0,0
1,0,0,0,0,0,525,464,2,0,0
2,0,0,0,0,3,508,484,1,0,0
3,0,0,0,0,0,524,464,1,0,0
4,0,0,0,0,0,509,484,2,0,0
5,0,0,0,0,0,528,464,1,0,0
6,0,0,0,0,0,511,486,1,0,0
7,0,0,0,0,1,528,463,2,0,0
8,0,0,0,0,0,512,485,2,0,0
9,0,0,0,0,0,529,465,1,0,0
10,0,0,0,0,3,512,486,2,0,0
11,0,0,0,0,0,528,463,1,0,0
12,0,0,0,0,0,511,484,2,0,0
13,0,0,0,0,1,528,463,2,0,0
14,0,0,0,0,3,512,482,1,0,0
15,0,0,0,0,0,529,461,1,0,0
0,0,0,0,0,0,511,480,2,0,0
1,0,0,0,0,0,528,459,1,0,0
2,0,0,0,0,3,511,480,1,0,0
3,0,0,0,0,1,527,457,2,0,0
4,0,0,0,0,0,508,479,2,0,0
5,0,0,0,0,0,524,456,1,0,0
6,0,0,0,0,3,506,479,2,0,0
7,0,0,0,0,0,524,456,1,0,0
8,0,0,0,0,0,507,479,2,0,0
9,0,0,0,0,0,527,457,2,0,0
10,0,0,0,0,3,506,479,1,0,0
11,0,0,0,0,0,519,457,1,0,0
12,0,0,0,0,0,499,479,2,0,0
13,0,0,0,0,0,519,457,1,0,0
14,0,0,0,0,3,497,479,1,0,0
15,0,0,0,0,1,527,457,1,0,0
0,0,0,0,0,0,512,477,2,0,0
1,0,0,0,0,0,526,457,1,0,0
2,0,0,0,0,3,508,479,2,0,0
3,0,0,0,0,0,525,458,1,0,0
4,0,0,0,0,0,503,480,2,0,0
5,0,0,0,0,0,518,460,2,0,0
6,0,0,0,0,3,502,482,1,0,0
7,0,0,0,0,0,523,460,1,0,0
8,0,0,0,0,0,505,481,2,0,0
9,0,0,0,0,0,487,459,1,0,0
10,0,0,0,0,3,462,481,1,0,0
11,0,0,0,0,1,592,460,2,0,0
12,0,0,0,0,0,936,481,2,0,0
13,0,0,0,0,0,1019,460,1,0,0
14,0,0,0,0,3,531,481,1,0,0
15,0,0,0,0,0,353,459,1,0,0
0,0,0,0,0,0,383,480,2,0,0
1,0,0,0,0,0,429,460,2,0,0
2,0,0,0,0,0,417,481,1,0,0
3,0,0,0,0,0,442,460,1,0,0
4,0,0,0,0,0,433,483,2,0,0
5,0,0,0,0,0,460,461,1,0,0
6,0,0,0,0,3,453,481,1,0,0
7,0,0,0,0,0,480,461,1,0,0
8,0,0,0,0,0,473,482,2,0,0
9,0,0,0,0,0,497,459,1,0,0
10,0,0,0,0,3,491,480,2,0,0
11,0,0,0,0,0,513,457,1,0,0
12,0,0,0,0,0,505,479,2,0,0
13,0,0,0,0,0,531,459,2,0,0
14,0,0,0,0,3,520,480,1,0,0
15,0,0,0,0,0,545,459,1,0,0
0,0,0,0,0,0,533,480,2,0,0
1,0,0,0,0,0,556,458,1,0,0
2,0,0,0,0,3,538,479,1,0,0
3,0,0,0,0,0,554,455,1,0,0
4,0,0,0,0,0,531,477,1,0,0
5,0,0,0,0,0,529,456,1,0,0
6,0,0,0,0,3,486,476,2,0,0
7,0,0,0,0,0,479,455,1,0,0
8,0,0,0,0,0,448,476,2,0,0
9,0,0,0,0,1,456,455,2,0,0
10,0,0,0,0,3,440,476,1,0,0
11,0,0,0,0,0,457,455,1,0,0
12,0,0,0,0,0,447,477,2,0,0
13,0,0,0,0,0,469,457,1,0,0
14,0,0,0,0,3,462,478,1,0,0
15,0,0,0,0,1,483,457,2,0,0
0,0,0,0,0,0,472,479,2,0,0
1,0,0,0,0,0,496,458,1,0,0
2,0,0,0,0,3,483,478,2,0,0
3,0,0,0,0,0,504,456,1,0,0
4,0,0,0,0,0,492,479,2,0,0
5,0,0,0,0,0,511,456,2,0,0
6,0,0,0,0,3,497,479,1,0,0
7,0,0,0,0,0,518,458,1,0,0
8,0,0,0,0,0,504,479,2,0,0
9,0,0,0,0,0,518,458,1,0,0
10,0,0,0,0,3,502,479,1,0,0
11,0,0,0,0,1,518,460,1,0,0
12,0,0,0,0,0,502,481,2,0,0
13,0,0,0,0,0,518,460,1,0,0
14,0,0,0,0,1,502,480,2,0,0
15,0,0,0,0,0,521,459,1,0,0
0,0,0,0,0,0,507,480,2,0,0
1,0,0,0,0,0,523,462,2,0,0
2,0,0,0,0,3,509,483,1,0,0
3,0,0,0,0,0,521,462,1,0,0
4,0,0,0,0,0,505,483,2,0,0
5,0,0,0,0,0,523,462,1,0,0
6,0,0,0,0,3,508,482,1,0,0
7,0,0,0,0,0,524,461,1,0,0
8,0,0,0,0,0,506,483,2,0,0
9,0,0,0,0,0,522,463,1,0,0
10,0,0,0,0,3,509,483,2,0,0
11,0,0,0,0,0,521,462,1,0,0
12,0,0,0,0,0,506,482,2,0,0
13,0,0,0,0,0,524,459,1,0,0
14,0,0,0,0,3,508,479,1,0,0
15,0,0,0,0,0,524,455,1,0,0
0,0,0,0,0,0,506,475,2,0,0
1,0,0,0,0,0,523,453,1,0,0
2,0,0,0,0,3,508,472,1,0,0
3,0,0,0,0,0,525,448,1,0,0
4,0,0,0,0,0,503,469,2,0,0
5,0,0,0,0,0,518,446,1,0,0
6,0,0,0,0,3,499,468,1,0,0
7,0,0,0,0,0,519,447,1,0,0
8,0,0,0,0,0,497,468,2,0,0
9,0,0,0,0,0,519,449,1,0,0
10,0,0,0,0,3,505,470,1,0,0
11,0,0,0,0,0,524,449,1,0,0
12,0,0,0,0,0,508,470,2,0,0
13,0,0,0,0,0,525,449,1,0,0
14,0,0,0,0,3,507,471,1,0,0
15,0,0,0,0,0,523,449,1,0,0
0,0,0,0,0,0,505,470,2,0,0
1,0,0,0,0,0,522,450,1,0,0
2,0,0,0,0,3,504,472,1,0,0
3,0,0,0,0,0,480,451,1,0,0
4,0,0,0,0,0,457,473,2,0,0
5,0,0,0,0,0,615,454,1,0,0
6,0,0,0,0,3,984,476,1,0,0
7,0,0,0,0,0,968,455,1,0,0
8,0,0,0,0,0,477,478,2,0,0
9,0,0,0,0,0,361,458,1,0,0
10,0,0,0,0,0,402,479,1,0,0
11,0,0,0,0,0,430,458,1,0,0
12,0,0,0,0,0,418,480,2,0,0
13,0,0,0,0,0,447,460,1,0,0
14,0,0,0,0,3,437,481,1,0,0
15,0,0,0,0,0,459,460,1,0,0
0,0,0,0,0,0,454,480,2,0,0
1,0,0,0,0,0,479,461,1,0,0
2,0,0,0,0,3,473,481,1,0,0
3,0,0,0,0,0,496,462,1,0,0
4,0,0,0,0,0,486,481,2,0,0
5,0,0,0,0,0,510,462,1,0,0
6,0,0,0,0,3,501,481,1,0,0
7,0,0,0,0,0,525,461,1,0,0
8,0,0,0,0,0,518,481,2,0,0
9,0,0,0,0,0,543,461,1,0,0
10,0,0,0,0,3,533,481,1,0,0
11,0,0,0,0,0,554,459,1,0,0
12,0,0,0,0,0,541,479,2,0,0
13,0,0,0,0,0,557,458,1,0,0
14,0,0,0,0,3,536,477,1,0,0
15,0,0,0,0,0,534,458,1,0,0
0,0,0,0,0,0,492,478,2,0,0
1,0,0,0,0,0,487,457,1,0,0
2,0,0,0,0,3,454,476,1,0,0
3,0,0,0,0,0,463,459,1,0,0
4,0,0,0,0,0,446,479,2,0,0
5,0,0,0,0,0,464,459,1,0,0
6,0,0,0,0,3,455,481,1,0,0
7,0,0,0,0,0,476,461,1,0,0
8,0,0,0,0,0,468,482,2,0,0
9,0,0,0,0,0,487,462,1,0,0
10,0,0,0,0,3,476,482,1,0,0
11,0,0,0,0,0,497,462,1,0,0
12,0,0,0,0,0,485,482,2,0,0
13,0,0,0,0,0,505,462,1,0,0
14,0,0,0,0,3,496,481,1,0,0
15,0,0,0,0,0,511,463,1,0,0
0,0,0,0,0,0,500,483,2,0,0
1,0,0,0,0,0,516,463,1,0,0
2,0,0,0,0,3,503,483,1,0,0
3,0,0,0,0,0,520,463,1,0,0
4,0,0,0,0,0,504,483,2,0,0
5,0,0,0,0,0,518,463,1,0,0
6,0,0,0,0,0,504,483,1,0,0
7,0,0,0,0,0,517,463,1,0,0
8,0,0,0,0,0,503,481,2,0,0
9,0,0,0,0,0,520,462,1,0,0
10,0,0,0,0,3,505,481,1,0,0
11,0,0,0,0,0,524,459,1,0,0
12,0,0,0,0,0,505,478,2,0,0
13,0,0,0,0,0,524,457,1,0,0
14,0,0,0,0,3,509,478,1,0,0
15,0,0,0,0,0,521,457,1,0,0
0,0,0,0,0,0,503,477,2,0,0
1,0,0,0,0,0,519,456,1,0,0
2,0,0,0,0,3,503,477,1,0,0
3,0,0,0,0,0,518,455,1,0,0
4,0,0,0,0,0,502,476,2,0,0
5,0,0,0,0,0,518,455,1,0,0
6,0,0,0,0,3,504,475,1,0,0
7,0,0,0,0,0,518,454,1,0,0
8,0,0,0,0,0,504,473,2,0,0
9,0,0,0,0,0,516,455,1,0,0
10,0,0,0,0,0,504,475,1,0,0
11,0,0,0,0,0,521,455,1,0,0
12,0,0,0,0,0,506,474,2,0,0
13,0,0,0,0,0,522,455,1,0,0
14,0,0,0,0,3,506,475,1,0,0
15,0,0,0,0,0,521,455,1,0,0
0,0,0,0,0,0,505,475,2,0,0
1,0,0,0,0,0,517,454,1,0,0
2,0,0,0,0,3,501,476,1,0,0
3,0,0,0,0,0,516,455,1,0,0
4,0,0,0,0,0,495,472,2,0,0
5,0,0,0,0,0,521,452,1,0,0
6,0,0,0,0,3,510,472,1,0,0
7,0,0,0,0,0,521,452,1,0,0
8,0,0,0,0,0,506,472,2,0,0
9,0,0,0,0,0,517,454,1,0,0
10,0,0,0,0,3,497,476,1,0,0
11,0,0,0,0,0,512,456,1,0,0
12,0,0,0,0,0,502,476,2,0,0
13,0,0,0,0,0,520,457,1,0,0
14,0,0,0,0,3,492,476,1,0,0
15,0,0,0,0,0,475,457,1,0,0
0,0,0,0,0,0,491,476,2,0,0
1,0,0,0,0,0,722,455,1,0,0
2,0,0,0,0,0,1022,476,1,0,0
3,0,0,0,0,0,802,456,1,0,0
4,0,0,0,0,0,393,476,2,0,0
5,0,0,0,0,0,376,455,1,0,0
6,0,0,0,0,3,407,475,1,0,0
7,0,0,0,0,0,432,452,1,0,0
8,0,0,0,0,0,424,472,2,0,0
9,0,0,0,0,0,446,450,1,0,0
10,0,0,0,0,3,442,470,1,0,0
11,0,0,0,0,0,466,451,1,0,0
12,0,0,0,0,0,456,473,2,0,0
13,0,0,0,0,0,480,456,1,0,0
14,0,0,0,0,3,476,475,1,0,0
15,0,0,0,0,0,496,459,1,0,0
0,0,0,0,0,0,494,478,2,0,0
1,0,0,0,0,0,518,458,1,0,0
2,0,0,0,0,3,515,477,1,0,0
3,0,0,0,0,0,537,458,1,0,0
4,0,0,0,0,0,530,477,2,0,0
5,0,0,0,0,0,551,457,1,0,0
6,0,0,0,0,0,545,476,1,0,0
7,0,0,0,0,0,559,456,1,0,0
8,0,0,0,0,0,545,476,2,0,0
9,0,0,0,0,0,556,456,1,0,0
10,0,0,0,0,3,531,476,1,0,0
11,0,0,0,0,0,523,455,1,0,0
12,0,0,0,0,0,479,475,2,0,0
13,0,0,0,0,0,470,454,1,0,0
14,0,0,0,0,3,441,474,1,0,0
15,0,0,0,0,0,452,455,1,0,0
0,0,0,0,0,0,440,476,2,0,0
1,0,0,0,0,0,459,459,1,0,0
2,0,0,0,0,3,450,478,1,0,0
3,0,0,0,0,0,477,459,1,0,0
4,0,0,0,0,0,469,477,2,0,0
5,0,0,0,0,0,492,458,1,0,0
6,0,0,0,0,3,485,476,1,0,0
7,0,0,0,0,0,502,457,1,0,0
8,0,0,0,0,0,494,476,2,0,0
9,0,0,0,0,0,512,457,1,0,0
10,0,0,0,0,3,499,476,1,0,0
11,0,0,0,0,0,513,457,1,0,0
12,0,0,0,0,0,501,477,2,0,0
13,0,0,0,0,0,519,458,1,0,0
14,0,0,0,0,3,505,476,1,0,0
15,0,0,0,0,0,516,456,1,0,0
0,0,0,0,0,0,502,476,2,0,0
1,0,0,0,0,0,517,455,1,0,0
2,0,0,0,0,3,506,474,1,0,0
3,0,0,0,0,0,521,454,1,0,0
4,0,0,0,0,0,508,473,2,0,0
5,0,0,0,0,0,524,454,1,0,0
6,0,0,0,0,3,511,473,1,0,0
7,0,0,0,0,0,526,453,1,0,0
8,0,0,0,0,0,510,473,2,0,0
9,0,0,0,0,0,525,454,1,0,0
10,0,0,0,0,3,511,471,1,0,0
11,0,0,0,0,0,524,453,1,0,0
12,0,0,0,0,0,509,471,2,0,0
13,0,0,0,0,0,521,453,1,0,0
14,0,0,0,0,3,508,472,1,0,0
15,0,0,0,0,0,523,451,1,0,0
0,0,0,0,0,0,506,471,2,0,0
1,0,0,0,0,0,520,452,1,0,0
2,0,0,0,0,0,505,471,1,0,0
3,0,0,0,0,0,518,450,1,0,0
4,0,0,0,0,0,508,470,2,0,0
5,0,0,0,0,0,520,450,1,0,0
6,0,0,0,0,3,506,469,1,0,0
7,0,0,0,0,0,519,450,1,0,0
8,0,0,0,0,0,503,471,2,0,0
9,0,0,0,0,0,519,452,1,0,0
10,0,0,0,0,3,503,471,1,0,0
11,0,0,0,0,0,520,452,1,0,0
12,0,0,0,0,0,512,472,2,0,0
13,0,0,0,0,0,530,454,1,0,0
14,0,0,0,0,3,514,471,1,0,0
15,0,0,0,0,0,529,454,1,0,0
0,0,0,0,0,0,508,472,2,0,0
1,0,0,0,0,0,520,453,1,0,0
2,0,0,0,0,3,510,472,1,0,0
3,0,0,0,0,0,522,453,1,0,0
4,0,0,0,0,0,504,472,2,0,0
5,0,0,0,0,0,483,453,1,0,0
6,0,0,0,0,3,463,473,1,0,0
7,0,0,0,0,0,608,454,1,0,0
8,0,0,0,0,0,969,472,2,0,0
9,0,0,0,0,0,994,454,1,0,0
10,0,0,0,0,3,499,472,1,0,0
11,0,0,0,0,0,352,452,1,0,0
12,0,0,0,0,0,390,472,2,0,0
13,0,0,0,0,0,427,452,1,0,0
14,0,0,0,0,3,420,470,1,0,0
15,0,0,0,0,0,442,449,1,0,0
0,0,0,0,0,0,437,468,2,0,0
1,0,0,0,0,0,463,447,1,0,0
2,0,0,0,0,3,455,465,1,0,0
3,0,0,0,0,0,480,445,1,0,0
4,0,0,0,0,0,475,464,2,0,0
5,0,0,0,0,0,496,445,1,0,0
6,0,0,0,0,3,489,463,1,0,0
7,0,0,0,0,0,508,444,1,0,0
8,0,0,0,0,0,503,463,2,0,0
9,0,0,0,0,0,524,444,1,0,0
10,0,0,0,0,3,517,461,1,0,0
11,0,0,0,0,0,540,443,1,0,0
12,0,0,0,0,0,533,462,1,0,0
13,0,0,0,0,0,550,444,1,0,0
14,0,0,0,0,0,538,463,1,0,0
15,0,0,0,0,0,552,445,1,0,0
0,0,0,0,0,0,528,465,1,0,0
1,0,0,0,0,0,527,448,1,0,0
2,0,0,0,0,3,490,467,1,0,0
3,0,0,0,0,0,481,451,1,0,0
4,0,0,0,0,0,454,469,2,0,0
5,0,0,0,0,0,460,452,1,0,0
6,0,0,0,0,3,448,470,1,0,0
7,0,0,0,0,0,463,454,1,0,0
8,0,0,0,0,0,454,472,2,0,0
9,0,0,0,0,0,473,454,1,0,0
10,0,0,0,0,3,468,473,1,0,0
11,0,0,0,0,0,486,455,1,0,0
12,0,0,0,0,0,477,472,2,0,0
13,0,0,0,0,0,494,454,1,0,0
14,0,0,0,0,3,485,472,1,0,0
15,0,0,0,0,0,504,452,1,0,0
0,0,0,0,0,0,494,471,2,0,0
1,0,0,0,0,0,507,451,1,0,0
2,0,0,0,0,3,499,469,1,0,0
3,0,0,0,0,0,514,449,1,0,0
4,0,0,0,0,0,504,467,2,0,0
5,0,0,0,0,0,517,449,1,0,0
6,0,0,0,0,3,503,466,1,0,0
7,0,0,0,0,0,517,449,1,0,0
8,0,0,0,0,0,503,467,2,0,0
9,0,0,0,0,0,517,450,1,0,0
10,0,0,0,0,3,504,468,1,0,0
11,0,0,0,0,0,517,454,1,0,0
12,0,0,0,0,0,507,473,2,0,0
13,0,0,0,0,0,519,458,1,0,0
14,0,0,0,0,3,510,475,1,0,0
15,0,0,0,0,0,522,459,1,0,0
0,0,0,0,0,0,511,477,2,0,0
1,0,0,0,0,0,522,460,1,0,0
2,0,0,0,0,3,512,477,1,0,0
3,0,0,0,0,0,525,461,1,0,0
4,0,0,0,0,0,513,478,2,0,0
5,0,0,0,0,0,524,463,1,0,0
6,0,0,0,0,3,516,479,1,0,0
7,0,0,0,0,0,526,463,1,0,0
8,0,0,0,0,0,511,480,2,0,0
9,0,0,0,0,0,522,465,1,0,0
10,0,0,0,0,0,511,481,1,0,0
11,0,0,0,0,0,522,466,1,0,0
12,0,0,0,0,0,510,480,2,0,0
13,0,0,0,0,0,520,465,1,0,0
14,0,0,0,0,3,508,480,1,0,0
15,0,0,0,0,0,524,466,1,0,0
0,0,0,0,0,0,506,482,2,0,0
1,0,0,0,0,0,526,467,1,0,0
2,0,0,0,0,3,516,482,1,0,0
3,0,0,0,0,0,527,463,1,0,0
4,0,0,0,0,0,515,480,2,0,0
5,0,0,0,0,0,526,462,1,0,0
6,0,0,0,0,3,510,478,1,0,0
7,0,0,0,0,0,519,462,1,0,0
8,0,0,0,0,0,508,478,2,0,0
9,0,0,0,0,0,523,463,1,0,0
10,0,0,0,0,3,505,479,1,0,0
11,0,0,0,0,0,475,463,1,0,0
12,0,0,0,0,0,473,480,2,0,0
13,0,0,0,0,0,671,463,1,0,0
14,0,0,0,0,3,1022,479,1,0,0
15,0,0,0,0,0,888,462,1,0,0
0,0,0,0,0,0,422,479,2,0,0
1,0,0,0,0,0,372,463,1,0,0
2,0,0,0,0,3,408,478,1,0,0
3,0,0,0,0,0,426,464,1,0,0
4,0,0,0,0,0,417,479,2,0,0
5,0,0,0,0,0,436,463,1,0,0
6,0,0,0,0,3,432,479,1,0,0
7,0,0,0,0,0,456,460,1,0,0
8,0,0,0,0,0,454,475,2,0,0
9,0,0,0,0,0,474,459,1,0,0
10,0,0,0,0,3,473,473,1,0,0
11,0,0,0,0,0,491,456,1,0,0
12,0,0,0,0,0,486,473,2,0,0
13,0,0,0,0,0,507,456,1,0,0
14,0,0,0,0,3,504,474,1,0,0
15,0,0,0,0,0,520,459,1,0,0
0,0,0,0,0,0,518,475,2,0,0
1,0,0,0,0,0,536,457,1,0,0
2,0,0,0,0,3,532,474,1,0,0
3,0,0,0,0,0,546,456,1,0,0
4,0,0,0,0,0,535,473,2,0,0
5,0,0,0,0,0,549,457,1,0,0
6,0,0,0,0,1,529,472,1,0,0
7,0,0,0,0,0,523,458,1,0,0
8,0,0,0,0,0,492,474,2,0,0
9,0,0,0,0,0,479,460,1,0,0
10,0,0,0,0,3,451,476,1,0,0
11,0,0,0,0,0,458,462,1,0,0
12,0,0,0,0,0,446,477,2,0,0
13,0,0,0,0,0,460,462,1,0,0
14,0,0,0,0,3,455,478,1,0,0
15,0,0,0,0,0,473,461,1,0,0
0,0,0,0,0,0,469,477,2,0,0
1,0,0,0,0,0,486,462,1,0,0
2,0,0,0,0,3,481,478,1,0,0
3,0,0,0,0,0,494,464,1,0,0
4,0,0,0,0,0,486,479,2,0,0
5,0,0,0,0,0,507,463,1,0,0
6,0,0,0,0,3,500,479,1,0,0
7,0,0,0,0,0,511,464,1,0,0
8,0,0,0,0,0,508,479,2,0,0
9,0,0,0,0,0,519,463,1,0,0
10,0,0,0,0,3,508,478,1,0,0
11,0,0,0,0,0,517,463,1,0,0
12,0,0,0,0,0,507,477,2,0,0
13,0,0,0,0,0,516,461,1,0,0
14,0,0,0,0,3,506,475,1,0,0
15,0,0,0,0,0,516,459,1,0,0
0,0,0,0,0,0,504,474,2,0,0
1,0,0,0,0,0,519,458,1,0,0
2,0,0,0,0,3,508,472,1,0,0
3,0,0,0,0,0,518,456,1,0,0
4,0,0,0,0,0,508,473,2,0,0
5,0,0,0,0,0,519,456,1,0,0
6,0,0,0,0,3,509,472,1,0,0
7,0,0,0,0,0,522,456,1,0,0
8,0,0,0,0,0,507,472,2,0,0
9,0,0,0,0,0,518,458,1,0,0
10,0,0,0,0,3,506,473,1,0,0
11,0,0,0,0,0,516,458,1,0,0
12,0,0,0,0,0,505,473,2,0,0
13,0,0,0,0,0,516,458,1,0,0
14,0,0,0,0,3,508,473,1,0,0
15,0,0,0,0,0,520,459,1,0,0
0,0,0,0,0,0,505,474,2,0,0
1,0,0,0,0,0,512,459,1,0,0
2,0,0,0,0,0,506,473,2,0,0
3,0,0,0,0,0,514,459,1,0,0
4,0,0,0,0,0,515,473,2,0,0
5,0,0,0,0,0,528,460,1,0,0
6,0,0,0,0,3,513,473,1,0,0
7,0,0,0,0,0,524,459,1,0,0
8,0,0,0,0,0,510,472,2,0,0
9,0,0,0,0,0,519,456,1,0,0
10,0,0,0,0,3,505,472,1,0,0
11,0,0,0,0,0,517,454,1,0,0
12,0,0,0,0,0,506,471,2,0,0
13,0,0,0,0,0,491,456,1,0,0
14,0,0,0,0,3,458,470,1,0,0
15,0,0,0,0,0,525,456,1,0,0
0,0,0,0,0,0,778,472,2,0,0
1,0,0,0,0,0,1022,457,1,0,0
2,0,0,0,0,3,684,471,1,0,0
3,0,0,0,0,0,377,457,1,0,0
4,0,0,0,0,0,371,471,2,0,0
5,0,0,0,0,0,423,455,1,0,0
6,0,0,0,0,1,423,470,1,0,0
7,0,0,0,0,0,438,456,1,0,0
8,0,0,0,0,0,435,470,2,0,0
9,0,0,0,0,0,459,455,1,0,0
10,0,0,0,0,3,460,470,1,0,0
11,0,0,0,0,0,476,458,1,0,0
12,0,0,0,0,0,474,473,2,0,0
13,0,0,0,0,0,492,461,1,0,0
14,0,0,0,0,3,491,475,1,0,0
15,0,0,0,0,0,507,462,1,0,0
0,0,0,0,0,0,508,476,2,0,0
1,0,0,0,0,0,526,462,1,0,0
2,0,0,0,0,3,527,475,1,0,0
3,0,0,0,0,0,543,462,1,0,0
4,0,0,0,0,0,541,475,2,0,0
5,0,0,0,0,0,555,460,1,0,0
6,0,0,0,0,3,549,475,1,0,0
7,0,0,0,0,0,558,461,1,0,0
8,0,0,0,0,0,544,474,2,0,0
9,0,0,0,0,0,540,459,1,0,0
10,0,0,0,0,3,504,471,1,0,0
11,0,0,0,0,0,487,455,1,0,0
12,0,0,0,0,0,457,470,2,0,0
13,0,0,0,0,0,455,454,1,0,0
14,0,0,0,0,3,442,468,1,0,0
15,0,0,0,0,0,453,457,1,0,0
0,0,0,0,0,0,449,473,2,0,0
1,0,0,0,0,0,466,461,1,0,0
2,0,0,0,0,3,463,476,1,0,0
3,0,0,0,0,0,479,464,1,0,0
4,0,0,0,0,0,479,478,2,0,0
5,0,0,0,0,0,497,463,1,0,0
6,0,0,0,0,3,494,476,1,0,0
7,0,0,0,0,0,509,461,1,0,0
8,0,0,0,0,0,503,473,2,0,0
9,0,0,0,0,0,514,459,1,0,0
10,0,0,0,0,3,504,472,1,0,0
11,0,0,0,0,0,515,459,1,0,0
12,0,0,0,0,0,504,475,2,0,0
13,0,0,0,0,0,517,462,1,0,0
14,0,0,0,0,3,504,476,1,0,0
15,0,0,0,0,0,512,464,1,0,0
0,0,0,0,0,0,505,477,2,0,0
1,0,0,0,0,0,517,465,1,0,0
2,0,0,0,0,0,511,476,1,0,0
3,0,0,0,0,0,523,462,1,0,0
4,0,0,0,0,0,514,475,2,0,0
5,0,0,0,0,0,523,461,1,0,0
6,0,0,0,0,3,519,473,1,0,0
7,0,0,0,0,0,525,462,1,0,0
8,0,0,0,0,0,514,475,2,0,0
9,0,0,0,0,0,522,462,1,0,0
10,0,0,0,0,3,509,476,1,0,0
11,0,0,0,0,0,520,460,1,0,0
12,0,0,0,0,0,521,473,2,0,0
13,0,0,0,0,0,512,459,1,0,0
14,0,0,0,0,3,514,472,1,0,0
15,0,0,0,0,0,521,460,1,0,0
0,0,0,0,0,0,513,473,2,0,0
1,0,0,0,0,0,516,462,1,0,0
2,0,0,0,0,3,507,475,1,0,0
3,0,0,0,0,0,515,464,1,0,0
4,0,0,0,0,0,504,477,2,0,0
5,0,0,0,0,0,516,468,1,0,0
6,0,0,0,0,3,511,480,2,0,0
7,0,0,0,0,0,519,467,1,0,0
8,0,0,0,0,0,467,480,2,0,0
9,0,0,0,0,0,479,467,2,0,0
10,0,0,0,0,3,626,478,1,0,0
11,0,0,0,0,0,1022,466,1,0,0
12,0,0,0,0,0,943,479,2,0,0
13,0,0,0,0,0,461,467,1,0,0
14,0,0,0,0,3,345,478,1,0,0
15,0,0,0,0,0,409,464,1,0,0
0,0,0,0,0,0,418,476,2,0,0
1,0,0,0,0,0,432,462,1,0,0
2,0,0,0,0,3,431,475,1,0,0
3,0,0,0,0,0,446,459,1,0,0
4,0,0,0,0,0,452,472,2,0,0
5,0,0,0,0,0,470,461,1,0,0
6,0,0,0,0,3,468,473,1,0,0
7,0,0,0,0,0,486,463,1,0,0
8,0,0,0,0,0,487,475,2,0,0
9,0,0,0,0,0,504,463,1,0,0
10,0,0,0,0,3,505,473,1,0,0
11,0,0,0,0,0,522,460,1,0,0
12,0,0,0,0,0,522,471,2,0,0
13,0,0,0,0,0,543,457,1,0,0
14,0,0,0,0,0,540,469,1,0,0
15,0,0,0,0,0,548,455,1,0,0
0,0,0,0,0,0,544,469,2,0,0
1,0,0,0,0,0,551,455,1,0,0
2,0,0,0,0,3,543,467,1,0,0
3,0,0,0,0,0,541,454,1,0,0
4,0,0,0,0,0,510,467,2,0,0
5,0,0,0,0,0,491,455,1,0,0
6,0,0,0,0,3,461,468,1,0,0
7,0,0,0,0,0,456,457,1,0,0
8,0,0,0,0,0,442,471,2,0,0
9,0,0,0,0,0,450,459,1,0,0
10,0,0,0,0,3,447,471,1,0,0
11,0,0,0,0,0,464,459,1,0,0
12,0,0,0,0,0,461,470,1,0,0
13,0,0,0,0,0,477,456,1,0,0
14,0,0,0,0,3,479,468,1,0,0
15,0,0,0,0,0,492,455,1,0,0
0,0,0,0,0,0,488,467,2,0,0
1,0,0,0,0,0,498,452,1,0,0
2,0,0,0,0,3,496,464,1,0,0
3,0,0,0,0,0,503,451,1,0,0
4,0,0,0,0,0,500,464,2,0,0
5,0,0,0,0,0,508,451,1,0,0
6,0,0,0,0,3,502,465,1,0,0
7,0,0,0,0,0,510,450,1,0,0
8,0,0,0,0,0,505,464,1,0,0
9,0,0,0,0,0,512,451,1,0,0
10,0,0,0,0,3,501,464,1,0,0
11,0,0,0,0,0,508,453,1,0,0
12,0,0,0,0,0,506,464,2,0,0
13,0,0,0,0,0,518,450,1,0,0
14,0,0,0,0,3,512,463,1,0,0
15,0,0,0,0,0,521,448,1,0,0
0,0,0,0,0,0,515,461,1,0,0
1,0,0,0,0,0,521,447,1,0,0
2,0,0,0,0,3,513,460,1,0,0
3,0,0,0,0,0,519,447,1,0,0
4,0,0,0,0,0,511,461,1,0,0
5,0,0,0,0,0,530,447,1,0,0
6,0,0,0,0,3,508,459,1,0,0
7,0,0,0,0,0,518,446,1,0,0
8,0,0,0,0,0,508,460,2,0,0
9,0,0,0,0,0,523,446,1,0,0
10,0,0,0,0,0,507,459,1,0,0
11,0,0,0,0,0,514,449,1,0,0
12,0,0,0,0,0,501,462,1,0,0
13,0,0,0,0,0,507,453,1,0,0
14,0,0,0,0,3,504,467,1,0,0
15,0,0,0,0,0,512,456,1,0,0
0,0,0,0,0,0,510,471,2,0,0
1,0,0,0,0,0,483,460,1,0,0
2,0,0,0,0,3,472,472,1,0,0
3,0,0,0,0,0,583,462,1,0,0
4,0,0,0,0,0,937,472,2,0,0
5,0,0,0,0,0,1021,462,1,0,0
6,0,0,0,0,3,540,473,1,0,0
7,0,0,0,0,0,359,460,1,0,0
8,0,0,0,0,0,404,471,2,0,0
9,0,0,0,0,0,431,460,1,0,0
10,0,0,0,0,3,428,469,1,0,0
11,0,0,0,0,0,443,459,1,0,0
12,0,0,0,0,0,443,470,2,0,0
13,0,0,0,0,0,461,458,1,0,0
14,0,0,0,0,3,465,469,1,0,0
15,0,0,0,0,0,475,461,1,0,0
0,0,0,0,0,0,479,469,2,0,0
1,0,0,0,0,0,492,457,1,0,0
2,0,0,0,0,3,495,468,1,0,0
3,0,0,0,0,0,511,455,1,0,0
4,0,0,0,0,0,511,466,2,0,0
5,0,0,0,0,0,523,455,1,0,0
6,0,0,0,0,3,525,467,1,0,0
7,0,0,0,0,0,539,456,1,0,0
8,0,0,0,0,0,538,468,2,0,0
9,0,0,0,0,0,548,458,1,0,0
10,0,0,0,0,3,544,471,1,0,0
11,0,0,0,0,0,550,461,1,0,0
12,0,0,0,0,0,536,472,1,0,0
13,0,0,0,0,0,526,461,1,0,0
14,0,0,0,0,3,493,472,1,0,0
15,0,0,0,0,0,481,462,1,0,0
0,0,0,0,0,0,460,472,2,0,0
1,0,0,0,0,0,457,461,1,0,0
2,0,0,0,0,3,452,472,1,0,0
3,0,0,0,0,0,462,463,1,0,0
4,0,0,0,0,0,460,473,2,0,0
5,0,0,0,0,0,473,465,1,0,0
6,0,0,0,0,0,475,476,1,0,0
7,0,0,0,0,0,482,467,1,0,0
8,0,0,0,0,0,480,478,2,0,0
9,0,0,0,0,0,492,468,1,0,0
10,0,0,0,0,3,490,479,1,0,0
11,0,0,0,0,0,503,470,1,0,0
12,0,0,0,0,0,502,480,2,0,0
13,0,0,0,0,0,508,472,1,0,0
14,0,0,0,0,3,505,481,1,0,0
15,0,0,0,0,0,517,472,1,0,0
0,0,0,0,0,0,509,481,2,0,0
1,0,0,0,0,0,516,473,1,0,0
2,0,0,0,0,3,512,483,1,0,0
3,0,0,0,0,0,516,472,2,0,0
4,0,0,0,0,0,512,480,2,0,0
5,0,0,0,0,0,515,468,1,0,0
6,0,0,0,0,3,511,478,1,0,0
7,0,0,0,0,0,517,464,1,0,0
8,0,0,0,0,0,511,474,2,0,0
9,0,0,0,0,0,519,464,1,0,0
10,0,0,0,0,3,511,474,1,0,0
11,0,0,0,0,0,516,465,1,0,0
12,0,0,0,0,0,514,475,2,0,0
13,0,0,0,0,0,518,467,1,0,0
14,0,0,0,0,3,508,476,1,0,0
15,0,0,0,0,0,513,466,1,0,0
0,0,0,0,0,0,520,475,2,0,0
1,0,0,0,0,0,515,465,1,0,0
2,0,0,0,0,3,512,473,1,0,0
3,0,0,0,0,0,522,463,1,0,0
4,0,0,0,0,0,520,473,2,0,0
5,0,0,0,0,0,517,464,1,0,0
6,0,0,0,0,3,512,474,1,0,0
7,0,0,0,0,0,512,463,1,0,0
8,0,0,0,0,0,504,473,2,0,0
9,0,0,0,0,0,509,463,1,0,0
10,0,0,0,0,3,505,471,1,0,0
11,0,0,0,0,0,512,462,1,0,0
12,0,0,0,0,0,476,472,1,0,0
13,0,0,0,0,0,466,461,1,0,0
14,0,0,0,0,3,531,471,1,0,0
15,0,0,0,0,0,844,462,1,0,0
0,0,0,0,0,0,1022,470,2,0,0
1,0,0,0,0,0,619,460,1,0,0
2,0,0,0,0,1,352,471,1,0,0
3,0,0,0,0,0,387,461,1,0,0
4,0,0,0,0,0,418,470,2,0,0
5,0,0,0,0,0,424,462,1,0,0
6,0,0,0,0,3,427,471,1,0,0
7,0,0,0,0,0,444,462,1,0,0
8,0,0,0,0,0,444,472,1,0,0
9,0,0,0,0,0,460,463,1,0,0
10,0,0,0,0,3,467,471,1,0,0
11,0,0,0,0,0,483,461,1,0,0
12,0,0,0,0,0,486,472,2,0,0
13,0,0,0,0,0,502,462,1,0,0
14,0,0,0,0,3,507,471,1,0,0
15,0,0,0,0,0,519,461,1,0,0
0,0,0,0,0,0,522,472,2,0,0
1,0,0,0,0,0,534,462,1,0,0
2,0,0,0,0,3,538,471,1,0,0
3,0,0,0,0,0,545,461,1,0,0
4,0,0,0,0,0,544,471,1,0,0
5,0,0,0,0,0,551,461,1,0,0
6,0,0,0,0,3,543,471,1,0,0
7,0,0,0,0,0,545,462,1,0,0
8,0,0,0,0,0,520,472,2,0,0
9,0,0,0,0,0,498,464,1,0,0
10,0,0,0,0,3,473,472,1,0,0
11,0,0,0,0,0,465,464,1,0,0
12,0,0,0,0,0,454,470,2,0,0
13,0,0,0,0,0,461,461,1,0,0
14,0,0,0,0,3,460,469,1,0,0
15,0,0,0,0,0,469,460,1,0,0
0,0,0,0,0,0,469,470,1,0,0
1,0,0,0,0,0,480,462,1,0,0
2,0,0,0,0,3,479,471,1,0,0
3,0,0,0,0,0,489,462,1,0,0
4,0,0,0,0,0,485,472,1,0,0
5,0,0,0,0,0,493,461,1,0,0
6,0,0,0,0,3,492,469,1,0,0
7,0,0,0,0,0,501,459,1,0,0
8,0,0,0,0,0,500,467,2,0,0
9,0,0,0,0,0,505,456,1,0,0
10,0,0,0,0,3,506,464,1,0,0
11,0,0,0,0,0,510,455,1,0,0
12,0,0,0,0,0,505,465,1,0,0
13,0,0,0,0,0,512,457,1,0,0
14,0,0,0,0,0,510,466,1,0,0
15,0,0,0,0,0,516,457,1,0,0
0,0,0,0,0,0,512,465,2,0,0
1,0,0,0,0,0,516,457,1,0,0
2,0,0,0,0,3,515,467,1,0,0
3,0,0,0,0,0,520,457,1,0,0
4,0,0,0,0,0,514,466,2,0,0
5,0,0,0,0,0,516,460,1,0,0
6,0,0,0,0,3,512,468,1,0,0
7,0,0,0,0,0,516,463,1,0,0
8,0,0,0,0,0,510,473,1,0,0
9,0,0,0,0,0,515,466,1,0,0
10,0,0,0,0,3,513,475,1,0,0
11,0,0,0,0,0,514,467,1,0,0
12,0,0,0,0,0,514,475,2,0,0
13,0,0,0,0,0,529,467,1,0,0
14,0,0,0,0,3,516,475,1,0,0
15,0,0,0,0,0,524,467,1,0,0
0,0,0,0,0,0,526,474,2,0,0
1,0,0,0,0,0,532,465,1,0,0
2,0,0,0,0,1,519,475,1,0,0
3,0,0,0,0,0,523,466,1,0,0
4,0,0,0,0,0,512,474,1,0,0
5,0,0,0,0,0,514,465,1,0,0
6,0,0,0,0,3,511,473,1,0,0
7,0,0,0,0,0,516,465,1,0,0
8,0,0,0,0,0,511,473,2,0,0
9,0,0,0,0,0,485,465,1,0,0
10,0,0,0,0,3,465,473,1,0,0
11,0,0,0,0,0,551,466,1,0,0
12,0,0,0,0,0,854,473,2,0,0
13,0,0,0,0,0,1022,467,1,0,0
14,0,0,0,0,3,632,474,1,0,0
15,0,0,0,0,0,359,467,1,0,0
0,0,0,0,0,0,377,476,1,0,0
1,0,0,0,0,0,428,467,1,0,0
2,0,0,0,0,3,429,476,1,0,0
3,0,0,0,0,0,440,469,1,0,0
4,0,0,0,0,0,451,476,2,0,0
5,0,0,0,0,0,459,468,1,0,0
6,0,0,0,0,3,466,476,1,0,0
7,0,0,0,0,0,481,468,1,0,0
8,0,0,0,0,0,483,475,2,0,0
9,0,0,0,0,0,494,467,1,0,0
10,0,0,0,0,3,499,474,1,0,0
11,0,0,0,0,0,508,468,1,0,0
12,0,0,0,0,0,512,475,1,0,0
13,0,0,0,0,0,524,467,1,0,0
14,0,0,0,0,3,530,475,1,0,0
15,0,0,0,0,0,542,467,1,0,0
0,0,0,0,0,0,545,474,2,0,0
1,0,0,0,0,0,552,466,1,0,0
2,0,0,0,0,3,550,472,1,0,0
3,0,0,0,0,0,553,465,1,0,0
4,0,0,0,0,0,543,472,2,0,0
5,0,0,0,0,0,522,461,1,0,0
6,0,0,0,0,3,496,468,1,0,0
7,0,0,0,0,0,477,459,1,0,0
8,0,0,0,0,0,458,466,1,0,0
9,0,0,0,0,0,452,457,1,0,0
10,0,0,0,0,3,448,466,1,0,0
11,0,0,0,0,0,450,457,1,0,0
12,0,0,0,0,0,454,464,1,0,0
13,0,0,0,0,0,461,456,1,0,0
14,0,0,0,0,1,468,464,1,0,0
15,0,0,0,0,0,476,459,1,0,0
0,0,0,0,0,0,478,466,2,0,0
1,0,0,0,0,0,488,461,1,0,0
2,0,0,0,0,3,490,467,1,0,0
3,0,0,0,0,0,497,461,1,0,0
4,0,0,0,0,0,500,467,1,0,0
5,0,0,0,0,0,507,459,1,0,0
6,0,0,0,0,3,507,465,1,0,0
7,0,0,0,0,0,511,458,1,0,0
8,0,0,0,0,0,509,464,1,0,0
9,0,0,0,0,0,511,456,1,0,0
10,0,0,0,0,3,508,464,1,0,0
11,0,0,0,0,0,507,456,1,0,0
12,0,0,0,0,0,505,463,1,0,0
13,0,0,0,0,0,507,457,1,0,0
14,0,0,0,0,3,503,463,1,0,0
15,0,0,0,0,0,508,457,1,0,0
0,0,0,0,0,0,504,464,1,0,0
1,0,0,0,0,0,510,458,1,0,0
2,0,0,0,0,3,510,465,1,0,0
3,0,0,0,0,0,511,459,1,0,0
4,0,0,0,0,0,512,467,2,0,0
5,0,0,0,0,0,511,463,1,0,0
6,0,0,0,0,3,513,469,1,0,0
7,0,0,0,0,0,516,463,1,0,0
8,0,0,0,0,0,514,470,2,0,0
9,0,0,0,0,0,516,464,1,0,0
10,0,0,0,0,3,515,471,1,0,0
11,0,0,0,0,0,514,465,1,0,0
12,0,0,0,0,0,513,472,1,0,0
13,0,0,0,0,0,517,465,1,0,0
14,0,0,0,0,3,512,472,1,0,0
15,0,0,0,0,0,514,467,1,0,0
0,0,0,0,0,0,521,474,2,0,0
1,0,0,0,0,0,515,470,1,0,0
2,0,0,0,0,3,518,475,1,0,0
3,0,0,0,0,0,523,470,1,0,0
4,0,0,0,0,0,526,476,2,0,0
5,0,0,0,0,0,519,469,1,0,0
6,0,0,0,0,3,517,476,1,0,0
7,0,0,0,0,0,516,469,1,0,0
8,0,0,0,0,0,511,476,1,0,0
9,0,0,0,0,0,512,470,1,0,0
10,0,0,0,0,0,512,475,1,0,0
11,0,0,0,0,0,514,468,1,0,0
12,0,0,0,0,0,478,475,2,0,0
13,0,0,0,0,0,466,468,1,0,0
14,0,0,0,0,3,566,475,1,0,0
15,0,0,0,0,0,913,467,1,0,0
0,0,0,0,0,0,1022,473,2,0,0
1,0,0,0,0,0,582,466,1,0,0
2,0,0,0,0,3,351,470,1,0,0
3,0,0,0,0,0,396,465,1,0,0
4,0,0,0,0,0,419,470,1,0,0
5,0,0,0,0,0,424,465,1,0,0
6,0,0,0,0,3,426,471,1,0,0
7,0,0,0,0,0,439,465,1,0,0
8,0,0,0,0,0,446,473,2,0,0
9,0,0,0,0,0,461,466,1,0,0
10,0,0,0,0,3,470,471,1,0,0
11,0,0,0,0,0,481,463,1,0,0
12,0,0,0,0,0,487,468,2,0,0
13,0,0,0,0,0,495,463,1,0,0
14,0,0,0,0,3,503,468,1,0,0
15,0,0,0,0,0,512,462,1,0,0
0,0,0,0,0,0,517,467,1,0,0
1,0,0,0,0,0,526,461,1,0,0
2,0,0,0,0,3,534,466,1,0,0
3,0,0,0,0,0,540,461,1,0,0
4,0,0,0,0,0,543,466,2,0,0
5,0,0,0,0,0,545,459,1,0,0
6,0,0,0,0,3,545,465,1,0,0
7,0,0,0,0,0,543,460,1,0,0
8,0,0,0,0,0,524,464,1,0,0
9,0,0,0,0,0,497,459,1,0,0
10,0,0,0,0,3,475,466,1,0,0
11,0,0,0,0,0,460,460,1,0,0
12,0,0,0,0,0,450,466,1,0,0
13,0,0,0,0,0,450,461,1,0,0
14,0,0,0,0,3,455,466,1,0,0
15,0,0,0,0,0,462,462,1,0,0
0,0,0,0,0,0,468,468,1,0,0
1,0,0,0,0,0,475,462,1,0,0
2,0,0,0,0,3,480,468,1,0,0
3,0,0,0,0,0,483,463,1,0,0
4,0,0,0,0,0,488,468,2,0,0
5,0,0,0,0,1,495,463,1,0,0
6,0,0,0,0,0,499,468,1,0,0
7,0,0,0,0,0,503,464,1,0,0
8,0,0,0,0,0,503,468,1,0,0
9,0,0,0,0,0,505,464,1,0,0
10,0,0,0,0,3,509,470,1,0,0
11,0,0,0,0,0,509,466,1,0,0
12,0,0,0,0,0,510,470,2,0,0
13,0,0,0,0,0,507,465,1,0,0
14,0,0,0,0,3,510,470,1,0,0
15,0,0,0,0,0,510,467,1,0,0
0,0,0,0,0,0,511,471,2,0,0
1,0,0,0,0,0,511,466,1,0,0
2,0,0,0,0,3,513,471,1,0,0
3,0,0,0,0,0,513,466,1,0,0
4,0,0,0,0,0,516,471,1,0,0
5,0,0,0,0,0,515,467,1,0,0
6,0,0,0,0,3,515,471,1,0,0
7,0,0,0,0,0,516,467,1,0,0
8,0,0,0,0,0,514,471,2,0,0
9,0,0,0,0,0,514,467,1,0,0
10,0,0,0,0,3,512,472,1,0,0
11,0,0,0,0,0,513,467,1,0,0
12,0,0,0,0,0,514,472,2,0,0
13,0,0,0,0,0,512,469,1,0,0
14,0,0,0,0,3,514,473,1,0,0
15,0,0,0,0,0,516,470,1,0,0
0,0,0,0,0,0,515,473,1,0,0
1,0,0,0,0,0,514,470,1,0,0
2,0,0,0,0,3,515,473,1,0,0
3,0,0,0,0,0,517,469,1,0,0
4,0,0,0,0,0,516,474,2,0,0
5,0,0,0,0,0,513,470,1,0,0
6,0,0,0,0,3,515,473,1,0,0
7,0,0,0,0,0,526,468,1,0,0
8,0,0,0,0,0,511,472,2,0,0
9,0,0,0,0,0,520,468,1,0,0
10,0,0,0,0,3,523,472,1,0,0
11,0,0,0,0,0,522,469,1,0,0
12,0,0,0,0,0,514,473,1,0,0
13,0,0,0,0,0,514,470,1,0,0
14,0,0,0,0,3,514,473,1,0,0
15,0,0,0,0,0,510,469,1,0,0
0,0,0,0,0,0,511,472,2,0,0
1,0,0,0,0,0,513,469,1,0,0
2,0,0,0,0,0,512,471,1,0,0
3,0,0,0,0,0,472,468,1,0,0
4,0,0,0,0,0,472,470,2,0,0
5,0,0,0,0,0,596,468,1,0,0
6,0,0,0,0,3,977,471,1,0,0
7,0,0,0,0,0,995,467,1,0,0
8,0,0,0,0,0,515,469,1,0,0
9,0,0,0,0,0,353,464,1,0,0
10,0,0,0,0,3,401,467,1,0,0
11,0,0,0,0,0,419,464,1,0,0
12,0,0,0,0,0,423,466,1,0,0
13,0,0,0,0,0,427,464,1,0,0
14,0,0,0,0,3,435,467,1,0,0
15,0,0,0,0,0,446,464,1,0,0
0,0,0,0,0,0,456,467,2,0,0
1,0,0,0,0,0,464,464,1,0,0
2,0,0,0,0,3,476,467,1,0,0
3,0,0,0,0,0,488,466,1,0,0
4,0,0,0,0,0,499,467,1,0,0
5,0,0,0,0,0,505,463,1,0,0
6,0,0,0,0,3,514,466,1,0,0
7,0,0,0,0,0,521,464,1,0,0
8,0,0,0,0,0,528,465,2,0,0
9,0,0,0,0,0,532,463,1,0,0
10,0,0,0,0,3,541,465,1,0,0
11,0,0,0,0,0,542,463,1,0,0
12,0,0,0,0,0,544,467,2,0,0
13,0,0,0,0,0,541,465,1,0,0
14,0,0,0,0,3,538,468,1,0,0
15,0,0,0,0,0,520,467,1,0,0
0,0,0,0,0,0,495,471,1,0,0
1,0,0,0,0,0,470,468,1,0,0
2,0,0,0,0,3,455,472,1,0,0
3,0,0,0,0,0,448,470,1,0,0
4,0,0,0,0,0,448,472,2,0,0
5,0,0,0,0,0,455,470,1,0,0
6,0,0,0,0,3,458,474,1,0,0
7,0,0,0,0,0,464,472,1,0,0
8,0,0,0,0,0,470,473,2,0,0
9,0,0,0,0,0,475,473,1,0,0
10,0,0,0,0,3,483,473,1,0,0
11,0,0,0,0,0,486,472,1,0,0
12,0,0,0,0,0,490,474,2,0,0
13,0,0,0,0,0,497,472,1,0,0
14,0,0,0,0,0,502,474,1,0,0
15,0,0,0,0,0,503,472,1,0,0
0,0,0,0,0,0,508,475,2,0,0
1,0,0,0,0,0,505,473,1,0,0
2,0,0,0,0,3,511,474,1,0,0
3,0,0,0,0,0,509,472,1,0,0
4,0,0,0,0,0,511,474,2,0,0
5,0,0,0,0,0,512,473,1,0,0
6,0,0,0,0,3,515,473,1,0,0
7,0,0,0,0,0,514,473,1,0,0
8,0,0,0,0,0,517,476,2,0,0
9,0,0,0,0,0,516,473,1,0,0
10,0,0,0,0,3,519,475,1,0,0
11,0,0,0,0,0,519,473,1,0,0
12,0,0,0,0,0,520,474,2,0,0
13,0,0,0,0,0,517,473,1,0,0
14,0,0,0,0,3,519,474,1,0,0
15,0,0,0,0,0,515,472,1,0,0
0,0,0,0,0,0,519,473,2,0,0
1,0,0,0,0,0,517,472,1,0,0
2,0,0,0,0,3,522,474,1,0,0
3,0,0,0,0,0,518,472,1,0,0
4,0,0,0,0,0,517,474,1,0,0
5,0,0,0,0,0,515,471,1,0,0
6,0,0,0,0,3,520,473,1,0,0
7,0,0,0,0,0,515,470,1,0,0
8,0,0,0,0,0,519,472,2,0,0
9,0,0,0,0,0,516,470,1,0,0
10,0,0,0,0,3,515,472,1,0,0
11,0,0,0,0,0,515,471,1,0,0
12,0,0,0,0,0,527,471,2,0,0
13,0,0,0,0,0,516,470,1,0,0
14,0,0,0,0,3,523,472,1,0,0
15,0,0,0,0,0,523,471,1,0,0
0,0,0,0,0,0,527,471,2,0,0
1,0,0,0,0,0,515,471,1,0,0
2,0,0,0,0,3,518,471,1,0,0
3,0,0,0,0,0,511,469,1,0,0
4,0,0,0,0,0,509,471,2,0,0
5,0,0,0,0,0,509,470,1,0,0
6,0,0,0,0,3,512,472,1,0,0
7,0,0,0,0,0,508,469,1,0,0
8,0,0,0,0,0,470,471,2,0,0
9,0,0,0,0,0,469,468,1,0,0
10,0,0,0,0,1,628,470,1,0,0
11,0,0,0,0,0,1019,470,1,0,0
12,0,0,0,0,0,959,469,2,0,0
13,0,0,0,0,0,460,469,1,0,0
14,0,0,0,0,3,344,468,1,0,0
15,0,0,0,0,0,397,469,1,0,0
0,0,0,0,0,0,419,469,2,0,0
1,0,0,0,0,0,424,470,1,0,0
2,0,0,0,0,3,432,471,1,0,0
3,0,0,0,0,0,441,469,1,0,0
4,0,0,0,0,0,455,469,2,0,0
5,0,0,0,0,0,463,469,1,0,0
6,0,0,0,0,3,476,468,1,0,0
7,0,0,0,0,0,480,470,1,0,0
8,0,0,0,0,0,491,469,1,0,0
9,0,0,0,0,0,497,469,1,0,0
10,0,0,0,0,3,509,469,1,0,0
11,0,0,0,0,0,515,469,1,0,0
12,0,0,0,0,0,523,469,2,0,0
13,0,0,0,0,0,529,469,1,0,0
14,0,0,0,0,0,540,470,1,0,0
15,0,0,0,0,0,545,469,1,0,0
0,0,0,0,0,0,553,469,1,0,0
1,0,0,0,0,0,547,469,1,0,0
2,0,0,0,0,3,551,469,1,0,0
3,0,0,0,0,0,541,468,1,0,0
4,0,0,0,0,0,524,469,1,0,0
5,0,0,0,0,0,494,469,1,0,0
6,0,0,0,0,3,472,469,1,0,0
7,0,0,0,0,0,452,469,1,0,0
8,0,0,0,0,0,448,469,2,0,0
9,0,0,0,0,0,446,470,1,0,0
10,0,0,0,0,3,452,469,1,0,0
11,0,0,0,0,0,455,469,1,0,0
12,0,0,0,0,0,467,469,2,0,0
13,0,0,0,0,0,468,470,1,0,0
14,0,0,0,0,3,477,470,1,0,0
15,0,0,0,0,0,477,469,1,0,0
0,0,0,0,0,0,490,468,1,0,0
1,0,0,0,0,0,490,467,1,0,0
2,0,0,0,0,3,500,466,1,0,0
