0,1,2,3,4,5,6,7,8,9,10
15,0,0,0,0,3,508,53,0,0,0
0,0,0,0,0,0,509,53,0,0,0
1,0,0,0,0,0,508,53,0,0,0
2,0,0,0,0,0,508,54,0,0,0
3,0,0,0,0,3,510,55,0,0,0
4,0,0,0,0,0,508,56,0,0,0
5,0,0,0,0,0,509,56,0,0,0
6,0,0,0,0,0,510,55,0,0,0
7,0,0,0,0,3,505,56,0,0,0
8,0,0,0,0,0,507,55,0,0,0
9,0,0,0,0,0,504,56,0,0,0
10,0,0,0,0,0,498,56,0,0,0
11,0,0,0,0,3,495,55,0,0,0
12,0,0,0,0,0,496,55,0,0,0
13,0,0,0,0,0,496,56,0,0,0
14,0,0,0,0,0,504,56,0,0,0
15,0,0,0,0,3,508,56,0,0,0
0,0,0,0,0,0,515,55,0,0,0
1,0,0,0,0,0,524,53,0,0,0
2,0,0,0,0,0,524,53,0,0,0
3,0,0,0,0,3,524,55,0,0,0
4,0,0,0,0,0,524,55,0,0,0
5,0,0,0,0,0,522,55,0,0,0
6,0,0,0,0,0,522,53,0,0,0
7,0,0,0,0,3,524,56,0,0,0
8,0,0,0,0,0,524,55,0,0,0
9,0,0,0,0,0,517,53,0,0,0
10,0,0,0,0,0,460,54,0,0,0
11,0,0,0,0,3,441,55,0,0,0
12,0,0,0,0,0,505,53,0,0,0
13,0,0,0,0,0,579,56,0,0,0
14,0,0,0,0,0,512,55,0,0,0
15,0,0,0,0,3,514,56,0,0,0
0,0,0,0,0,0,524,53,0,0,0
1,0,0,0,0,0,527,54,0,0,0
2,0,0,0,0,0,530,55,0,0,0
3,0,0,0,0,3,529,55,0,0,0
4,0,0,0,0,0,530,55,0,0,0
5,0,0,0,0,0,526,54,0,0,0
6,0,0,0,0,0,523,54,0,0,0
7,0,0,0,0,1,520,52,0,0,0
8,0,0,0,0,0,519,53,0,0,0
9,0,0,0,0,0,515,55,0,0,0
10,0,0,0,0,0,511,55,0,0,0
11,0,0,0,0,3,510,55,0,0,0
12,0,0,0,0,0,505,55,0,0,0
13,0,0,0,0,0,503,54,0,0,0
14,0,0,0,0,0,502,52,0,0,0
15,0,0,0,0,3,495,53,0,0,0
0,0,0,0,0,0,488,54,0,0,0
1,0,0,0,0,0,487,55,0,0,0
2,0,0,0,0,0,484,54,0,0,0
3,0,0,0,0,3,485,55,0,0,0
4,0,0,0,0,0,486,55,0,0,0
5,0,0,0,0,0,495,54,0,0,0
6,0,0,0,0,0,505,55,0,0,0
7,0,0,0,0,3,515,55,0,0,0
8,0,0,0,0,0,525,55,0,0,0
9,0,0,0,0,0,528,55,0,0,0
10,0,0,0,0,0,530,55,0,0,0
11,0,0,0,0,1,528,54,0,0,0
12,0,0,0,0,0,524,53,0,0,0
13,0,0,0,0,0,519,52,0,0,0
14,0,0,0,0,0,519,53,0,0,0
15,0,0,0,0,3,515,53,0,0,0
0,0,0,0,0,0,515,55,0,0,0
1,0,0,0,0,0,513,55,0,0,0
2,0,0,0,0,0,511,55,0,0,0
3,0,0,0,0,3,511,55,0,0,0
4,0,0,0,0,0,508,55,0,0,0
5,0,0,0,0,0,510,55,0,0,0
6,0,0,0,0,0,510,54,0,0,0
7,0,0,0,0,3,514,54,0,0,0
8,0,0,0,0,0,514,52,0,0,0
9,0,0,0,0,0,514,55,0,0,0
10,0,0,0,0,0,510,55,0,0,0
11,0,0,0,0,3,504,55,0,0,0
12,0,0,0,0,0,503,53,0,0,0
13,0,0,0,0,0,500,53,0,0,0
14,0,0,0,0,0,498,52,0,0,0
15,0,0,0,0,3,500,54,0,0,0
0,0,0,0,0,0,498,54,0,0,0
1,0,0,0,0,0,501,55,0,0,0
2,0,0,0,0,0,499,56,0,0,0
3,0,0,0,0,3,501,55,0,0,0
4,0,0,0,0,0,502,55,0,0,0
5,0,0,0,0,0,501,55,0,0,0
6,0,0,0,0,0,502,55,0,0,0
7,0,0,0,0,3,505,54,0,0,0
8,0,0,0,0,0,505,55,0,0,0
9,0,0,0,0,0,509,55,0,0,0
10,0,0,0,0,0,510,55,0,0,0
11,0,0,0,0,3,507,54,0,0,0
12,0,0,0,0,0,508,53,0,0,0
13,0,0,0,0,0,511,53,0,0,0
14,0,0,0,0,0,512,55,0,0,0
15,0,0,0,0,3,514,55,0,0,0
0,0,0,0,0,0,512,54,0,0,0
1,0,0,0,0,0,511,53,0,0,0
2,0,0,0,0,0,508,54,0,0,0
3,0,0,0,0,3,508,54,0,0,0
4,0,0,0,0,0,512,53,0,0,0
5,0,0,0,0,0,511,52,0,0,0
6,0,0,0,0,0,512,53,0,0,0
7,0,0,0,0,0,512,55,0,0,0
8,0,0,0,0,0,512,55,0,0,0
9,0,0,0,0,0,511,55,0,0,0
10,0,0,0,0,0,507,53,0,0,0
11,0,0,0,0,3,503,53,0,0,0
12,0,0,0,0,0,502,53,0,0,0
13,0,0,0,0,0,503,53,0,0,0
14,0,0,0,0,0,499,53,0,0,0
15,0,0,0,0,3,502,52,0,0,0
0,0,0,0,0,0,504,55,0,0,0
1,0,0,0,0,0,514,55,0,0,0
2,0,0,0,0,0,515,55,0,0,0
3,0,0,0,0,3,515,54,0,0,0
4,0,0,0,0,0,512,52,0,0,0
5,0,0,0,0,0,513,53,0,0,0
6,0,0,0,0,0,515,52,0,0,0
7,0,0,0,0,3,516,52,0,0,0
8,0,0,0,0,0,518,52,0,0,0
9,0,0,0,0,0,524,55,0,0,0
10,0,0,0,0,0,513,53,0,0,0
11,0,0,0,0,3,450,52,0,0,0
12,0,0,0,0,0,445,52,0,0,0
13,0,0,0,0,0,522,52,0,0,0
14,0,0,0,0,0,566,54,0,0,0
15,0,0,0,0,3,505,54,0,0,0
0,0,0,0,0,0,515,54,0,0,0
1,0,0,0,0,0,520,55,0,0,0
2,0,0,0,0,0,517,55,0,0,0
3,0,0,0,0,3,518,54,0,0,0
4,0,0,0,0,0,517,52,0,0,0
5,0,0,0,0,0,513,52,0,0,0
6,0,0,0,0,0,508,54,0,0,0
7,0,0,0,0,3,502,55,0,0,0
8,0,0,0,0,0,500,55,0,0,0
9,0,0,0,0,0,496,55,0,0,0
10,0,0,0,0,0,496,55,0,0,0
11,0,0,0,0,3,492,54,0,0,0
12,0,0,0,0,0,493,55,0,0,0
13,0,0,0,0,0,490,55,0,0,0
14,0,0,0,0,0,486,55,0,0,0
15,0,0,0,0,3,480,54,0,0,0
0,0,0,0,0,0,477,54,0,0,0
1,0,0,0,0,0,476,52,0,0,0
2,0,0,0,0,0,478,55,0,0,0
3,0,0,0,0,1,475,55,0,0,0
4,0,0,0,0,0,473,53,0,0,0
5,0,0,0,0,0,476,54,0,0,0
6,0,0,0,0,1,478,55,0,0,0
7,0,0,0,0,3,485,52,0,0,0
8,0,0,0,0,0,491,54,0,0,0
9,0,0,0,0,0,497,55,0,0,0
10,0,0,0,0,0,500,54,0,0,0
11,0,0,0,0,3,499,52,0,0,0
12,0,0,0,0,0,502,54,0,0,0
13,0,0,0,0,0,499,55,0,0,0
14,0,0,0,0,0,499,55,0,0,0
15,0,0,0,0,3,495,54,0,0,0
0,0,0,0,0,0,495,54,0,0,0
1,0,0,0,0,0,491,54,0,0,0
2,0,0,0,0,0,487,54,0,0,0
3,0,0,0,0,3,484,52,0,0,0
4,0,0,0,0,0,479,52,0,0,0
5,0,0,0,0,0,475,53,0,0,0
6,0,0,0,0,0,472,54,0,0,0
7,0,0,0,0,3,472,52,0,0,0
8,0,0,0,0,1,470,52,0,0,0
9,0,0,0,0,0,467,52,0,0,0
10,0,0,0,0,0,466,52,0,0,0
11,0,0,0,0,3,467,54,0,0,0
12,0,0,0,0,0,466,55,0,0,0
13,0,0,0,0,0,467,53,0,0,0
14,0,0,0,0,0,468,52,0,0,0
15,0,0,0,0,3,474,53,0,0,0
0,0,0,0,0,0,475,54,0,0,0
1,0,0,0,0,0,472,55,0,0,0
2,0,0,0,0,0,468,52,0,0,0
3,0,0,0,0,3,468,54,0,0,0
4,0,0,0,0,0,472,55,0,0,0
5,0,0,0,0,0,471,52,0,0,0
6,0,0,0,0,0,472,53,0,0,0
7,0,0,0,0,3,473,54,0,0,0
8,0,0,0,0,0,470,54,0,0,0
9,0,0,0,0,0,468,54,0,0,0
10,0,0,0,0,0,470,55,0,0,0
11,0,0,0,0,3,474,54,0,0,0
12,0,0,0,0,0,479,54,0,0,0
13,0,0,0,0,0,479,54,0,0,0
14,0,0,0,0,0,481,54,0,0,0
15,0,0,0,0,1,487,55,0,0,0
0,0,0,0,0,0,487,54,0,0,0
1,0,0,0,0,0,480,54,0,0,0
2,0,0,0,0,0,480,54,0,0,0
3,0,0,0,0,3,478,55,0,0,0
4,0,0,0,0,0,485,54,0,0,0
5,0,0,0,0,0,487,52,0,0,0
6,0,0,0,0,0,483,52,0,0,0
7,0,0,0,0,3,487,53,0,0,0
8,0,0,0,0,0,480,54,0,0,0
9,0,0,0,0,0,480,54,0,0,0
10,0,0,0,0,0,483,54,0,0,0
11,0,0,0,0,3,479,53,0,0,0
12,0,0,0,0,0,487,52,0,0,0
13,0,0,0,0,0,492,52,0,0,0
14,0,0,0,0,0,502,52,0,0,0
15,0,0,0,0,3,509,52,0,0,0
0,0,0,0,0,0,515,52,0,0,0
1,0,0,0,0,0,513,53,0,0,0
2,0,0,0,0,0,512,54,0,0,0
3,0,0,0,0,3,514,54,0,0,0
4,0,0,0,0,0,514,54,0,0,0
5,0,0,0,0,0,515,53,0,0,0
6,0,0,0,0,0,525,53,0,0,0
7,0,0,0,0,3,515,53,0,0,0
8,0,0,0,0,0,450,52,0,0,0
9,0,0,0,0,0,442,52,0,0,0
10,0,0,0,0,0,519,52,0,0,0
11,0,0,0,0,3,585,54,0,0,0
12,0,0,0,0,0,519,54,0,0,0
13,0,0,0,0,0,522,53,0,0,0
14,0,0,0,0,0,535,55,0,0,0
15,0,0,0,0,3,534,53,0,0,0
0,0,0,0,0,0,531,51,0,0,0
1,0,0,0,0,0,535,53,0,0,0
2,0,0,0,0,0,538,55,0,0,0
3,0,0,0,0,3,539,55,0,0,0
4,0,0,0,0,0,537,54,0,0,0
5,0,0,0,0,0,540,55,0,0,0
6,0,0,0,0,0,540,54,0,0,0
7,0,0,0,0,3,535,54,0,0,0
8,0,0,0,0,0,536,53,0,0,0
9,0,0,0,0,0,536,52,0,0,0
10,0,0,0,0,0,533,54,0,0,0
11,0,0,0,0,1,531,55,0,0,0
12,0,0,0,0,0,527,52,0,0,0
13,0,0,0,0,0,523,54,0,0,0
14,0,0,0,0,0,521,55,0,0,0
15,0,0,0,0,3,518,53,0,0,0
0,0,0,0,0,0,523,53,0,0,0
1,0,0,0,0,0,531,53,0,0,0
2,0,0,0,0,0,533,53,0,0,0
3,0,0,0,0,3,539,55,0,0,0
4,0,0,0,0,0,543,55,0,0,0
5,0,0,0,0,0,548,55,0,0,0
6,0,0,0,0,0,553,54,0,0,0
7,0,0,0,0,3,560,54,0,0,0
8,0,0,0,0,0,556,55,0,0,0
9,0,0,0,0,0,552,54,0,0,0
10,0,0,0,0,0,548,55,0,0,0
11,0,0,0,0,3,550,55,0,0,0
12,0,0,0,0,0,551,53,0,0,0
13,0,0,0,0,0,547,53,0,0,0
14,0,0,0,0,0,543,54,0,0,0
15,0,0,0,0,3,541,56,0,0,0
0,0,0,0,0,0,542,54,0,0,0
1,0,0,0,0,0,545,53,0,0,0
2,0,0,0,0,0,547,56,0,0,0
3,0,0,0,0,3,545,56,0,0,0
4,0,0,0,0,0,544,55,0,0,0
5,0,0,0,0,0,543,55,0,0,0
6,0,0,0,0,0,542,55,0,0,0
7,0,0,0,0,3,541,55,0,0,0
8,0,0,0,0,0,542,56,0,0,0
9,0,0,0,0,0,543,56,0,0,0
10,0,0,0,0,0,545,54,0,0,0
11,0,0,0,0,3,546,56,0,0,0
12,0,0,0,0,0,545,57,0,0,0
13,0,0,0,0,0,545,56,0,0,0
14,0,0,0,0,0,541,57,0,0,0
15,0,0,0,0,3,537,55,0,0,0
0,0,0,0,0,0,539,54,0,0,0
1,0,0,0,0,0,539,56,0,0,0
2,0,0,0,0,0,535,57,0,0,0
3,0,0,0,0,3,531,55,0,0,0
4,0,0,0,0,0,527,54,0,0,0
5,0,0,0,0,0,529,55,0,0,0
6,0,0,0,0,0,531,57,0,0,0
7,0,0,0,0,0,529,56,0,0,0
8,0,0,0,0,0,532,55,0,0,0
9,0,0,0,0,0,531,58,0,0,0
10,0,0,0,0,0,534,55,0,0,0
11,0,0,0,0,3,532,57,0,0,0
12,0,0,0,0,0,534,55,0,0,0
13,0,0,0,0,0,535,57,0,0,0
14,0,0,0,0,0,528,58,0,0,0
15,0,0,0,0,3,523,56,0,0,0
0,0,0,0,0,0,519,57,0,0,0
1,0,0,0,0,0,508,58,0,0,0
2,0,0,0,0,0,513,56,0,0,0
3,0,0,0,0,3,518,56,0,0,0
4,0,0,0,0,0,521,56,0,0,0
5,0,0,0,0,0,534,58,0,0,0
6,0,0,0,0,0,543,58,0,0,0
7,0,0,0,0,3,540,58,0,0,0
8,0,0,0,0,0,535,59,0,0,0
9,0,0,0,0,0,529,59,0,0,0
10,0,0,0,0,0,531,59,0,0,0
11,0,0,0,0,3,533,57,0,0,0
12,0,0,0,0,0,534,57,0,0,0
13,0,0,0,0,0,529,57,0,0,0
14,0,0,0,0,0,503,59,0,0,0
15,0,0,0,0,3,459,59,0,0,0
0,0,0,0,0,0,497,59,0,0,0
1,0,0,0,0,0,578,58,0,0,0
2,0,0,0,0,0,559,58,0,0,0
3,0,0,0,0,3,511,57,0,0,0
4,0,0,0,0,0,519,59,0,0,0
5,0,0,0,0,0,524,60,0,0,0
6,0,0,0,0,0,523,60,0,0,0
7,0,0,0,0,3,520,60,0,0,0
8,0,0,0,0,0,520,58,0,0,0
9,0,0,0,0,0,518,58,0,0,0
10,0,0,0,0,0,517,60,0,0,0
11,0,0,0,0,3,512,60,0,0,0
12,0,0,0,0,0,509,59,0,0,0
13,0,0,0,0,0,504,60,0,0,0
14,0,0,0,0,0,504,61,0,0,0
15,0,0,0,0,3,504,59,0,0,0
0,0,0,0,0,0,504,60,0,0,0
1,0,0,0,0,0,504,62,0,0,0
2,0,0,0,0,0,500,62,0,0,0
3,0,0,0,0,1,495,60,0,0,0
4,0,0,0,0,0,494,62,0,0,0
5,0,0,0,0,0,494,62,0,0,0
6,0,0,0,0,0,494,60,0,0,0
7,0,0,0,0,3,496,60,0,0,0
8,0,0,0,0,0,500,60,0,0,0
9,0,0,0,0,0,506,60,0,0,0
10,0,0,0,0,0,516,62,0,0,0
11,0,0,0,0,3,524,63,0,0,0
12,0,0,0,0,0,536,63,0,0,0
13,0,0,0,0,0,536,63,0,0,0
14,0,0,0,0,0,537,63,0,0,0
15,0,0,0,0,3,531,63,0,0,0
0,0,0,0,0,0,532,62,0,0,0
1,0,0,0,0,0,525,62,0,0,0
2,0,0,0,0,0,525,64,0,0,0
3,0,0,0,0,3,527,64,0,0,0
4,0,0,0,0,0,525,62,0,0,0
5,0,0,0,0,0,521,64,0,0,0
6,0,0,0,0,0,518,65,0,0,0
7,0,0,0,0,1,520,66,0,0,0
8,0,0,0,0,0,519,67,0,0,0
9,0,0,0,0,0,519,67,0,0,0
10,0,0,0,0,0,521,67,0,0,0
11,0,0,0,0,3,521,66,0,0,0
12,0,0,0,0,0,520,66,0,0,0
13,0,0,0,0,0,521,67,0,0,0
14,0,0,0,0,0,523,68,0,0,0
15,0,0,0,0,3,519,69,0,0,0
0,0,0,0,0,0,516,69,0,0,0
1,0,0,0,0,0,511,67,0,0,0
2,0,0,0,0,0,510,69,0,0,0
3,0,0,0,0,3,505,68,0,0,0
4,0,0,0,0,0,508,69,0,0,0
5,0,0,0,0,0,504,69,0,0,0
6,0,0,0,0,0,502,69,0,0,0
7,0,0,0,0,3,498,70,0,0,0
8,0,0,0,0,0,491,69,0,0,0
9,0,0,0,0,0,488,69,0,0,0
10,0,0,0,0,0,492,69,0,0,0
11,0,0,0,0,3,491,71,0,0,0
12,0,0,0,0,0,492,70,0,0,0
13,0,0,0,0,0,493,69,0,0,0
14,0,0,0,0,0,492,69,0,0,0
15,0,0,0,0,3,489,69,0,0,0
0,0,0,0,0,0,491,71,0,0,0
1,0,0,0,0,0,484,71,0,0,0
2,0,0,0,0,0,488,71,0,0,0
3,0,0,0,0,3,487,71,0,0,0
4,0,0,0,0,0,489,70,0,0,0
5,0,0,0,0,0,498,69,0,0,0
6,0,0,0,0,0,505,69,0,0,0
7,0,0,0,0,3,502,69,0,0,0
8,0,0,0,0,0,502,71,0,0,0
9,0,0,0,0,0,496,71,0,0,0
10,0,0,0,0,0,496,71,0,0,0
11,0,0,0,0,3,498,70,0,0,0
12,0,0,0,0,0,500,70,0,0,0
13,0,0,0,0,0,499,70,0,0,0
14,0,0,0,0,0,480,69,0,0,0
15,0,0,0,0,3,434,68,0,0,0
0,0,0,0,0,0,467,68,0,0,0
1,0,0,0,0,0,549,68,0,0,0
2,0,0,0,0,0,550,68,0,0,0
3,0,0,0,0,1,503,68,0,0,0
4,0,0,0,0,0,521,67,0,0,0
5,0,0,0,0,0,526,67,0,0,0
6,0,0,0,0,0,527,65,0,0,0
7,0,0,0,0,3,532,65,0,0,0
8,0,0,0,0,0,537,67,0,0,0
9,0,0,0,0,0,540,67,0,0,0
10,0,0,0,0,0,546,67,0,0,0
11,0,0,0,0,3,547,66,0,0,0
12,0,0,0,0,0,545,67,0,0,0
13,0,0,0,0,0,543,65,0,0,0
14,0,0,0,0,0,546,64,0,0,0
15,0,0,0,0,3,543,65,0,0,0
0,0,0,0,0,0,543,66,0,0,0
1,0,0,0,0,0,544,66,0,0,0
2,0,0,0,0,0,544,66,0,0,0
3,0,0,0,0,3,543,66,0,0,0
4,0,0,0,0,0,540,66,0,0,0
5,0,0,0,0,0,535,66,0,0,0
6,0,0,0,0,0,536,66,0,0,0
7,0,0,0,0,3,535,65,0,0,0
8,0,0,0,0,0,534,63,0,0,0
9,0,0,0,0,0,539,63,0,0,0
10,0,0,0,0,0,546,64,0,0,0
11,0,0,0,0,3,556,63,0,0,0
12,0,0,0,0,0,564,63,0,0,0
13,0,0,0,0,0,562,63,0,0,0
14,0,0,0,0,0,559,63,0,0,0
15,0,0,0,0,3,554,63,0,0,0
0,0,0,0,0,0,547,63,0,0,0
1,0,0,0,0,0,543,65,0,0,0
2,0,0,0,0,0,538,64,0,0,0
3,0,0,0,0,3,538,63,0,0,0
4,0,0,0,0,0,536,65,0,0,0
5,0,0,0,0,0,536,65,0,0,0
6,0,0,0,0,0,535,65,0,0,0
7,0,0,0,0,3,531,64,0,0,0
8,0,0,0,0,0,531,65,0,0,0
9,0,0,0,0,0,527,64,0,0,0
10,0,0,0,0,0,527,64,0,0,0
11,0,0,0,0,3,525,64,0,0,0
12,0,0,0,0,0,526,64,0,0,0
13,0,0,0,0,0,527,64,0,0,0
14,0,0,0,0,0,518,63,0,0,0
15,0,0,0,0,0,512,64,0,0,0
0,0,0,0,0,0,513,64,0,0,0
1,0,0,0,0,0,511,64,0,0,0
2,0,0,0,0,0,511,64,0,0,0
3,0,0,0,0,3,515,63,0,0,0
4,0,0,0,0,0,516,62,0,0,0
5,0,0,0,0,0,516,61,0,0,0
6,0,0,0,0,0,515,62,0,0,0
7,0,0,0,0,3,510,62,0,0,0
8,0,0,0,0,0,514,63,0,0,0
9,0,0,0,0,0,515,63,0,0,0
10,0,0,0,0,0,516,63,0,0,0
11,0,0,0,0,3,513,63,0,0,0
12,0,0,0,0,0,503,61,0,0,0
13,0,0,0,0,0,503,62,0,0,0
14,0,0,0,0,0,504,61,0,0,0
15,0,0,0,0,3,496,63,0,0,0
0,0,0,0,0,0,501,62,0,0,0
1,0,0,0,0,0,504,60,0,0,0
2,0,0,0,0,0,510,63,0,0,0
3,0,0,0,0,3,515,63,0,0,0
4,0,0,0,0,0,519,60,0,0,0
5,0,0,0,0,0,518,63,0,0,0
6,0,0,0,0,0,518,61,0,0,0
7,0,0,0,0,3,520,63,0,0,0
8,0,0,0,0,0,519,61,0,0,0
9,0,0,0,0,0,518,63,0,0,0
10,0,0,0,0,0,513,60,0,0,0
11,0,0,0,0,3,502,62,0,0,0
12,0,0,0,0,0,467,63,0,0,0
13,0,0,0,0,0,428,62,0,0,0
14,0,0,0,0,0,464,61,0,0,0
15,0,0,0,0,3,547,61,0,0,0
0,0,0,0,0,0,516,62,0,0,0
1,0,0,0,0,0,484,63,0,0,0
2,0,0,0,0,0,497,61,0,0,0
3,0,0,0,0,3,494,60,0,0,0
4,0,0,0,0,0,495,62,0,0,0
5,0,0,0,0,0,489,62,0,0,0
6,0,0,0,0,0,488,62,0,0,0
7,0,0,0,0,3,492,63,0,0,0
8,0,0,0,0,0,496,62,0,0,0
9,0,0,0,0,0,489,61,0,0,0
10,0,0,0,0,0,490,60,0,0,0
11,0,0,0,0,0,487,60,0,0,0
12,0,0,0,0,0,488,60,0,0,0
13,0,0,0,0,0,488,62,0,0,0
14,0,0,0,0,0,488,62,0,0,0
15,0,0,0,0,3,489,62,0,0,0
0,0,0,0,0,0,488,61,0,0,0
1,0,0,0,0,0,480,62,0,0,0
2,0,0,0,0,0,475,62,0,0,0
3,0,0,0,0,3,466,62,0,0,0
4,0,0,0,0,0,468,62,0,0,0
5,0,0,0,0,0,466,60,0,0,0
6,0,0,0,0,0,477,60,0,0,0
7,0,0,0,0,3,484,62,0,0,0
8,0,0,0,0,0,497,61,0,0,0
9,0,0,0,0,0,508,60,0,0,0
10,0,0,0,0,0,514,62,0,0,0
11,0,0,0,0,3,515,62,0,0,0
12,0,0,0,0,0,518,61,0,0,0
13,0,0,0,0,0,508,61,0,0,0
14,0,0,0,0,0,504,59,0,0,0
15,0,0,0,0,3,502,59,0,0,0
0,0,0,0,0,0,501,59,0,0,0
1,0,0,0,0,0,500,61,0,0,0
2,0,0,0,0,0,500,61,0,0,0
3,0,0,0,0,3,498,60,0,0,0
4,0,0,0,0,0,501,59,0,0,0
5,0,0,0,0,0,500,59,0,0,0
6,0,0,0,0,0,500,60,0,0,0
7,0,0,0,0,3,498,61,0,0,0
8,0,0,0,0,0,499,62,0,0,0
9,0,0,0,0,0,503,62,0,0,0
10,0,0,0,0,0,504,60,0,0,0
11,0,0,0,0,3,503,59,0,0,0
12,0,0,0,0,0,509,59,0,0,0
13,0,0,0,0,0,508,59,0,0,0
14,0,0,0,0,0,507,61,0,0,0
15,0,0,0,0,3,508,62,0,0,0
0,0,0,0,0,0,512,60,0,0,0
1,0,0,0,0,0,509,61,0,0,0
2,0,0,0,0,0,511,59,0,0,0
3,0,0,0,0,3,513,59,0,0,0
4,0,0,0,0,0,515,60,0,0,0
5,0,0,0,0,0,516,61,0,0,0
6,0,0,0,0,0,516,60,0,0,0
7,0,0,0,0,1,513,60,0,0,0
8,0,0,0,0,0,516,58,0,0,0
9,0,0,0,0,0,516,61,0,0,0
10,0,0,0,0,0,517,60,0,0,0
11,0,0,0,0,3,521,59,0,0,0
12,0,0,0,0,0,522,59,0,0,0
13,0,0,0,0,0,519,59,0,0,0
14,0,0,0,0,0,518,61,0,0,0
15,0,0,0,0,3,514,61,0,0,0
0,0,0,0,0,0,515,61,0,0,0
1,0,0,0,0,0,514,60,0,0,0
2,0,0,0,0,0,513,59,0,0,0
3,0,0,0,0,3,512,60,0,0,0
4,0,0,0,0,0,507,60,0,0,0
5,0,0,0,0,0,500,61,0,0,0
6,0,0,0,0,0,496,61,0,0,0
7,0,0,0,0,3,489,60,0,0,0
8,0,0,0,0,0,494,58,0,0,0
9,0,0,0,0,0,495,58,0,0,0
10,0,0,0,0,0,500,59,0,0,0
11,0,0,0,0,3,506,60,0,0,0
12,0,0,0,0,0,513,61,0,0,0
13,0,0,0,0,0,512,59,0,0,0
14,0,0,0,0,0,513,59,0,0,0
15,0,0,0,0,3,512,58,0,0,0
0,0,0,0,0,0,514,59,0,0,0
1,0,0,0,0,0,511,60,0,0,0
2,0,0,0,0,0,511,61,0,0,0
3,0,0,0,0,3,502,59,0,0,0
4,0,0,0,0,0,461,60,0,0,0
5,0,0,0,0,0,431,60,0,0,0
6,0,0,0,0,0,468,61,0,0,0
7,0,0,0,0,3,563,59,0,0,0
8,0,0,0,0,0,524,59,0,0,0
9,0,0,0,0,0,504,59,0,0,0
10,0,0,0,0,0,528,61,0,0,0
11,0,0,0,0,3,537,61,0,0,0
12,0,0,0,0,0,540,60,0,0,0
13,0,0,0,0,0,537,58,0,0,0
14,0,0,0,0,0,540,60,0,0,0
15,0,0,0,0,3,540,60,0,0,0
0,0,0,0,0,0,541,59,0,0,0
1,0,0,0,0,0,538,60,0,0,0
2,0,0,0,0,0,534,58,0,0,0
3,0,0,0,0,1,530,60,0,0,0
4,0,0,0,0,0,527,60,0,0,0
5,0,0,0,0,0,517,58,0,0,0
6,0,0,0,0,0,515,59,0,0,0
7,0,0,0,0,3,508,61,0,0,0
8,0,0,0,0,0,503,60,0,0,0
9,0,0,0,0,0,500,59,0,0,0
10,0,0,0,0,0,500,59,0,0,0
11,0,0,0,0,3,497,60,0,0,0
12,0,0,0,0,0,496,59,0,0,0
13,0,0,0,0,0,495,59,0,0,0
14,0,0,0,0,0,498,61,0,0,0
15,0,0,0,0,3,500,59,0,0,0
0,0,0,0,0,0,510,57,0,0,0
1,0,0,0,0,0,512,60,0,0,0
2,0,0,0,0,0,515,61,0,0,0
3,0,0,0,0,3,522,58,0,0,0
4,0,0,0,0,0,526,60,0,0,0
5,0,0,0,0,0,528,60,0,0,0
6,0,0,0,0,0,529,57,0,0,0
7,0,0,0,0,3,524,59,0,0,0
8,0,0,0,0,0,522,59,0,0,0
9,0,0,0,0,0,521,60,0,0,0
10,0,0,0,0,0,521,60,0,0,0
11,0,0,0,0,3,519,60,0,0,0
12,0,0,0,0,0,521,58,0,0,0
13,0,0,0,0,0,520,58,0,0,0
14,0,0,0,0,0,520,60,0,0,0
15,0,0,0,0,3,520,61,0,0,0
0,0,0,0,0,0,520,60,0,0,0
1,0,0,0,0,0,516,59,0,0,0
2,0,0,0,0,0,516,58,0,0,0
3,0,0,0,0,3,514,60,0,0,0
4,0,0,0,0,0,512,60,0,0,0
5,0,0,0,0,0,512,60,0,0,0
6,0,0,0,0,0,511,58,0,0,0
7,0,0,0,0,3,506,60,0,0,0
8,0,0,0,0,0,508,60,0,0,0
9,0,0,0,0,0,507,60,0,0,0
10,0,0,0,0,0,513,60,0,0,0
11,0,0,0,0,3,511,58,0,0,0
12,0,0,0,0,0,515,60,0,0,0
13,0,0,0,0,0,515,61,0,0,0
14,0,0,0,0,0,517,59,0,0,0
15,0,0,0,0,1,516,61,0,0,0
0,0,0,0,0,0,515,58,0,0,0
1,0,0,0,0,0,515,61,0,0,0
2,0,0,0,0,0,515,59,0,0,0
3,0,0,0,0,3,508,59,0,0,0
4,0,0,0,0,0,505,61,0,0,0
5,0,0,0,0,0,503,59,0,0,0
6,0,0,0,0,0,503,61,0,0,0
7,0,0,0,0,3,497,60,0,0,0
8,0,0,0,0,0,494,60,0,0,0
9,0,0,0,0,0,495,61,0,0,0
10,0,0,0,0,0,499,61,0,0,0
11,0,0,0,0,3,498,60,0,0,0
12,0,0,0,0,0,498,59,0,0,0
13,0,0,0,0,0,493,61,0,0,0
14,0,0,0,0,0,493,61,0,0,0
15,0,0,0,0,3,489,61,0,0,0
0,0,0,0,0,0,492,59,0,0,0
1,0,0,0,0,0,487,61,0,0,0
2,0,0,0,0,0,487,62,0,0,0
3,0,0,0,0,0,485,60,0,0,0
4,0,0,0,0,0,491,60,0,0,0
5,0,0,0,0,0,494,60,0,0,0
6,0,0,0,0,0,498,62,0,0,0
7,0,0,0,0,3,497,62,0,0,0
8,0,0,0,0,0,499,60,0,0,0
9,0,0,0,0,0,498,61,0,0,0
10,0,0,0,0,0,500,60,0,0,0
11,0,0,0,0,3,499,60,0,0,0
12,0,0,0,0,0,504,61,0,0,0
13,0,0,0,0,0,503,62,0,0,0
14,0,0,0,0,0,504,62,0,0,0
15,0,0,0,0,3,500,60,0,0,0
0,0,0,0,0,0,506,60,0,0,0
1,0,0,0,0,0,501,62,0,0,0
2,0,0,0,0,0,500,62,0,0,0
3,0,0,0,0,3,502,61,0,0,0
4,0,0,0,0,0,508,61,0,0,0
5,0,0,0,0,0,514,62,0,0,0
6,0,0,0,0,0,522,63,0,0,0
7,0,0,0,0,3,524,61,0,0,0
8,0,0,0,0,0,527,60,0,0,0
9,0,0,0,0,0,524,62,0,0,0
10,0,0,0,0,0,524,62,0,0,0
11,0,0,0,0,3,525,61,0,0,0
12,0,0,0,0,0,529,60,0,0,0
13,0,0,0,0,0,528,63,0,0,0
14,0,0,0,0,0,524,60,0,0,0
15,0,0,0,0,3,486,62,0,0,0
0,0,0,0,0,0,444,61,0,0,0
1,0,0,0,0,0,471,63,0,0,0
2,0,0,0,0,0,558,60,0,0,0
3,0,0,0,0,3,534,62,0,0,0
4,0,0,0,0,0,499,61,0,0,0
5,0,0,0,0,0,516,63,0,0,0
6,0,0,0,0,0,521,61,0,0,0
7,0,0,0,0,3,519,61,0,0,0
8,0,0,0,0,0,520,60,0,0,0
9,0,0,0,0,0,518,61,0,0,0
10,0,0,0,0,0,515,63,0,0,0
11,0,0,0,0,3,512,60,0,0,0
12,0,0,0,0,0,513,62,0,0,0
13,0,0,0,0,0,509,63,0,0,0
14,0,0,0,0,0,512,63,0,0,0
15,0,0,0,0,1,504,61,0,0,0
0,0,0,0,0,0,503,63,0,0,0
1,0,0,0,0,0,500,61,0,0,0
2,0,0,0,0,0,503,63,0,0,0
3,0,0,0,0,3,498,63,0,0,0
4,0,0,0,0,0,496,63,0,0,0
5,0,0,0,0,0,491,62,0,0,0
6,0,0,0,0,0,490,63,0,0,0
7,0,0,0,0,3,489,61,0,0,0
8,0,0,0,0,0,494,63,0,0,0
9,0,0,0,0,0,491,61,0,0,0
10,0,0,0,0,0,500,63,0,0,0
11,0,0,0,0,3,506,62,0,0,0
12,0,0,0,0,0,517,63,0,0,0
13,0,0,0,0,0,523,63,0,0,0
14,0,0,0,0,0,529,63,0,0,0
15,0,0,0,0,3,528,61,0,0,0
0,0,0,0,0,0,528,63,0,0,0
1,0,0,0,0,0,527,61,0,0,0
2,0,0,0,0,0,524,63,0,0,0
3,0,0,0,0,3,524,62,0,0,0
4,0,0,0,0,0,527,63,0,0,0
5,0,0,0,0,0,524,61,0,0,0
6,0,0,0,0,0,529,63,0,0,0
7,0,0,0,0,3,527,62,0,0,0
8,0,0,0,0,0,527,63,0,0,0
9,0,0,0,0,0,523,62,0,0,0
10,0,0,0,0,0,521,63,0,0,0
11,0,0,0,0,3,518,61,0,0,0
12,0,0,0,0,0,517,63,0,0,0
13,0,0,0,0,0,515,63,0,0,0
14,0,0,0,0,0,517,61,0,0,0
15,0,0,0,0,3,513,63,0,0,0
0,0,0,0,0,0,515,61,0,0,0
1,0,0,0,0,0,507,63,0,0,0
2,0,0,0,0,0,512,63,0,0,0
3,0,0,0,0,3,509,63,0,0,0
4,0,0,0,0,0,513,61,0,0,0
5,0,0,0,0,0,515,62,0,0,0
6,0,0,0,0,0,515,63,0,0,0
7,0,0,0,0,3,512,62,0,0,0
8,0,0,0,0,1,514,63,0,0,0
9,0,0,0,0,0,512,64,0,0,0
10,0,0,0,0,0,512,63,0,0,0
11,0,0,0,0,0,508,64,0,0,0
12,0,0,0,0,0,512,64,0,0,0
13,0,0,0,0,0,510,64,0,0,0
14,0,0,0,0,0,510,63,0,0,0
15,0,0,0,0,3,504,62,0,0,0
0,0,0,0,0,0,505,62,0,0,0
1,0,0,0,0,0,503,62,0,0,0
2,0,0,0,0,0,504,64,0,0,0
3,0,0,0,0,3,504,62,0,0,0
4,0,0,0,0,0,504,62,0,0,0
5,0,0,0,0,0,502,61,0,0,0
6,0,0,0,0,0,507,61,0,0,0
7,0,0,0,0,3,504,62,0,0,0
8,0,0,0,0,0,505,63,0,0,0
9,0,0,0,0,0,502,63,0,0,0
10,0,0,0,0,0,504,62,0,0,0
11,0,0,0,0,3,502,63,0,0,0
12,0,0,0,0,0,505,63,0,0,0
13,0,0,0,0,0,506,63,0,0,0
14,0,0,0,0,0,509,63,0,0,0
15,0,0,0,0,3,511,63,0,0,0
0,0,0,0,0,0,512,63,0,0,0
1,0,0,0,0,0,508,64,0,0,0
2,0,0,0,0,0,510,63,0,0,0
3,0,0,0,0,3,510,61,0,0,0
4,0,0,0,0,0,513,63,0,0,0
5,0,0,0,0,0,513,63,0,0,0
6,0,0,0,0,0,514,62,0,0,0
7,0,0,0,0,3,509,63,0,0,0
8,0,0,0,0,0,505,63,0,0,0
9,0,0,0,0,0,500,61,0,0,0
10,0,0,0,0,0,496,63,0,0,0
11,0,0,0,0,3,488,63,0,0,0
12,0,0,0,0,0,494,62,0,0,0
13,0,0,0,0,0,491,61,0,0,0
14,0,0,0,0,0,503,63,0,0,0
15,0,0,0,0,3,512,64,0,0,0
0,0,0,0,0,0,521,61,0,0,0
1,0,0,0,0,0,519,62,0,0,0
2,0,0,0,0,0,518,62,0,0,0
3,0,0,0,0,3,515,64,0,0,0
4,0,0,0,0,0,518,64,0,0,0
5,0,0,0,0,0,515,63,0,0,0
6,0,0,0,0,0,518,62,0,0,0
7,0,0,0,0,1,508,63,0,0,0
8,0,0,0,0,0,460,63,0,0,0
9,0,0,0,0,0,429,62,0,0,0
10,0,0,0,0,0,483,63,0,0,0
11,0,0,0,0,3,569,64,0,0,0
12,0,0,0,0,0,519,63,0,0,0
13,0,0,0,0,0,504,61,0,0,0
14,0,0,0,0,0,518,63,0,0,0
15,0,0,0,0,3,519,64,0,0,0
0,0,0,0,0,0,520,63,0,0,0
1,0,0,0,0,0,516,62,0,0,0
2,0,0,0,0,0,517,61,0,0,0
3,0,0,0,0,3,514,64,0,0,0
4,0,0,0,0,0,513,63,0,0,0
5,0,0,0,0,0,506,64,0,0,0
6,0,0,0,0,0,507,64,0,0,0
7,0,0,0,0,3,505,64,0,0,0
8,0,0,0,0,0,507,64,0,0,0
9,0,0,0,0,0,505,64,0,0,0
10,0,0,0,0,0,508,63,0,0,0
11,0,0,0,0,3,505,62,0,0,0
12,0,0,0,0,0,507,61,0,0,0
13,0,0,0,0,0,499,63,0,0,0
14,0,0,0,0,0,492,62,0,0,0
15,0,0,0,0,3,488,63,0,0,0
0,0,0,0,0,0,491,63,0,0,0
1,0,0,0,0,0,492,61,0,0,0
2,0,0,0,0,0,498,62,0,0,0
3,0,0,0,0,3,499,62,0,0,0
4,0,0,0,0,0,508,63,0,0,0
5,0,0,0,0,0,513,64,0,0,0
6,0,0,0,0,0,524,64,0,0,0
7,0,0,0,0,3,530,63,0,0,0
8,0,0,0,0,0,535,63,0,0,0
9,0,0,0,0,0,525,63,0,0,0
10,0,0,0,0,0,524,63,0,0,0
11,0,0,0,0,3,519,62,0,0,0
12,0,0,0,0,0,515,62,0,0,0
13,0,0,0,0,0,512,63,0,0,0
14,0,0,0,0,0,512,63,0,0,0
15,0,0,0,0,3,510,63,0,0,0
0,0,0,0,0,0,514,63,0,0,0
1,0,0,0,0,0,511,63,0,0,0
2,0,0,0,0,0,515,63,0,0,0
3,0,0,0,0,0,514,63,0,0,0
4,0,0,0,0,0,515,62,0,0,0
5,0,0,0,0,0,512,62,0,0,0
6,0,0,0,0,0,511,61,0,0,0
7,0,0,0,0,3,509,61,0,0,0
8,0,0,0,0,0,510,61,0,0,0
9,0,0,0,0,0,509,63,0,0,0
10,0,0,0,0,0,513,63,0,0,0
11,0,0,0,0,3,512,63,0,0,0
12,0,0,0,0,0,517,63,0,0,0
13,0,0,0,0,0,512,63,0,0,0
14,0,0,0,0,0,512,63,0,0,0
15,0,0,0,0,3,515,63,0,0,0
0,0,0,0,0,0,518,63,0,0,0
1,0,0,0,0,0,519,63,0,0,0
2,0,0,0,0,0,518,63,0,0,0
3,0,0,0,0,3,514,63,0,0,0
4,0,0,0,0,0,519,63,0,0,0
5,0,0,0,0,0,515,61,0,0,0
6,0,0,0,0,0,518,63,0,0,0
7,0,0,0,0,3,518,64,0,0,0
8,0,0,0,0,0,520,63,0,0,0
9,0,0,0,0,0,512,63,0,0,0
10,0,0,0,0,0,513,62,0,0,0
11,0,0,0,0,3,511,63,0,0,0
12,0,0,0,0,0,515,63,0,0,0
13,0,0,0,0,0,512,63,0,0,0
14,0,0,0,0,0,517,63,0,0,0
15,0,0,0,0,3,511,63,0,0,0
0,0,0,0,0,0,513,61,0,0,0
1,0,0,0,0,0,510,62,0,0,0
2,0,0,0,0,0,513,63,0,0,0
3,0,0,0,0,3,504,63,0,0,0
4,0,0,0,0,0,504,62,0,0,0
5,0,0,0,0,0,504,63,0,0,0
6,0,0,0,0,0,507,63,0,0,0
7,0,0,0,0,3,504,61,0,0,0
8,0,0,0,0,0,506,62,0,0,0
9,0,0,0,0,0,504,63,0,0,0
10,0,0,0,0,0,506,63,0,0,0
11,0,0,0,0,3,504,63,0,0,0
12,0,0,0,0,0,507,63,0,0,0
13,0,0,0,0,0,499,63,0,0,0
14,0,0,0,0,0,496,62,0,0,0
15,0,0,0,0,0,491,63,0,0,0
0,0,0,0,0,0,492,63,0,0,0
1,0,0,0,0,0,487,63,0,0,0
2,0,0,0,0,0,495,62,0,0,0
3,0,0,0,0,3,493,63,0,0,0
4,0,0,0,0,0,504,63,0,0,0
5,0,0,0,0,0,510,63,0,0,0
6,0,0,0,0,0,515,63,0,0,0
7,0,0,0,0,3,511,63,0,0,0
8,0,0,0,0,0,520,63,0,0,0
9,0,0,0,0,0,527,62,0,0,0
10,0,0,0,0,0,531,61,0,0,0
11,0,0,0,0,3,527,61,0,0,0
12,0,0,0,0,0,536,61,0,0,0
13,0,0,0,0,0,515,63,0,0,0
14,0,0,0,0,0,455,62,0,0,0
15,0,0,0,0,3,449,61,0,0,0
0,0,0,0,0,0,523,62,0,0,0
1,0,0,0,0,0,569,63,0,0,0
2,0,0,0,0,0,508,63,0,0,0
3,0,0,0,0,3,517,63,0,0,0
4,0,0,0,0,0,526,61,0,0,0
5,0,0,0,0,0,517,61,0,0,0
6,0,0,0,0,0,517,62,0,0,0
7,0,0,0,0,3,512,62,0,0,0
8,0,0,0,0,0,513,62,0,0,0
9,0,0,0,0,0,508,63,0,0,0
10,0,0,0,0,0,510,63,0,0,0
11,0,0,0,0,3,508,63,0,0,0
12,0,0,0,0,0,510,63,0,0,0
13,0,0,0,0,0,508,63,0,0,0
14,0,0,0,0,0,510,63,0,0,0
15,0,0,0,0,3,506,63,0,0,0
0,0,0,0,0,0,506,63,0,0,0
1,0,0,0,0,0,501,63,0,0,0
2,0,0,0,0,0,503,63,0,0,0
3,0,0,0,0,3,494,63,0,0,0
4,0,0,0,0,0,492,62,0,0,0
5,0,0,0,0,0,486,63,0,0,0
6,0,0,0,0,0,491,63,0,0,0
7,0,0,0,0,3,493,63,0,0,0
8,0,0,0,0,0,497,63,0,0,0
9,0,0,0,0,0,497,63,0,0,0
10,0,0,0,0,0,508,63,0,0,0
11,0,0,0,0,1,518,63,0,0,0
12,0,0,0,0,0,528,63,0,0,0
13,0,0,0,0,0,531,63,0,0,0
14,0,0,0,0,0,534,63,0,0,0
15,0,0,0,0,3,527,63,0,0,0
0,0,0,0,0,0,527,63,0,0,0
1,0,0,0,0,0,518,62,0,0,0
2,0,0,0,0,0,518,61,0,0,0
3,0,0,0,0,3,513,62,0,0,0
4,0,0,0,0,0,514,61,0,0,0
5,0,0,0,0,0,509,61,0,0,0
6,0,0,0,0,0,508,62,0,0,0
7,0,0,0,0,3,508,61,0,0,0
8,0,0,0,0,0,508,62,0,0,0
9,0,0,0,0,0,504,62,0,0,0
10,0,0,0,0,0,505,61,0,0,0
11,0,0,0,0,3,502,61,0,0,0
12,0,0,0,0,0,505,61,0,0,0
13,0,0,0,0,0,504,63,0,0,0
14,0,0,0,0,0,510,61,0,0,0
15,0,0,0,0,0,508,61,0,0,0
0,0,0,0,0,0,511,61,0,0,0
1,0,0,0,0,0,507,61,0,0,0
2,0,0,0,0,0,505,63,0,0,0
3,0,0,0,0,3,503,62,0,0,0
4,0,0,0,0,0,505,63,0,0,0
5,0,0,0,0,0,504,63,0,0,0
6,0,0,0,0,0,506,63,0,0,0
7,0,0,0,0,3,503,63,0,0,0
8,0,0,0,0,0,503,61,0,0,0
9,0,0,0,0,0,503,63,0,0,0
10,0,0,0,0,0,504,63,0,0,0
11,0,0,0,0,3,505,63,0,0,0
12,0,0,0,0,0,505,63,0,0,0
13,0,0,0,0,0,501,63,0,0,0
14,0,0,0,0,0,504,61,0,0,0
15,0,0,0,0,3,505,63,0,0,0
0,0,0,0,0,0,511,64,0,0,0
1,0,0,0,0,0,504,63,0,0,0
2,0,0,0,0,0,503,63,0,0,0
3,0,0,0,0,3,504,63,0,0,0
4,0,0,0,0,0,507,62,0,0,0
5,0,0,0,0,0,505,62,0,0,0
6,0,0,0,0,0,506,62,0,0,0
7,0,0,0,0,3,504,61,0,0,0
8,0,0,0,0,0,510,63,0,0,0
9,0,0,0,0,0,504,63,0,0,0
10,0,0,0,0,0,510,63,0,0,0
11,0,0,0,0,3,509,63,0,0,0
12,0,0,0,0,0,511,63,0,0,0
13,0,0,0,0,0,508,63,0,0,0
14,0,0,0,0,0,507,63,0,0,0
15,0,0,0,0,3,504,63,0,0,0
0,0,0,0,0,0,501,63,0,0,0
1,0,0,0,0,0,496,63,0,0,0
2,0,0,0,0,0,499,62,0,0,0
3,0,0,0,0,3,491,62,0,0,0
4,0,0,0,0,0,499,62,0,0,0
5,0,0,0,0,0,493,61,0,0,0
6,0,0,0,0,0,497,61,0,0,0
7,0,0,0,0,3,504,62,0,0,0
8,0,0,0,0,0,511,61,0,0,0
9,0,0,0,0,0,511,63,0,0,0
10,0,0,0,0,0,513,63,0,0,0
11,0,0,0,0,1,512,63,0,0,0
12,0,0,0,0,0,515,63,0,0,0
13,0,0,0,0,0,515,63,0,0,0
14,0,0,0,0,0,522,63,0,0,0
15,0,0,0,0,3,511,63,0,0,0
0,0,0,0,0,0,463,62,0,0,0
1,0,0,0,0,0,429,62,0,0,0
2,0,0,0,0,0,484,63,0,0,0
3,0,0,0,0,3,574,63,0,0,0
4,0,0,0,0,0,521,63,0,0,0
5,0,0,0,0,0,499,63,0,0,0
6,0,0,0,0,0,522,61,0,0,0
7,0,0,0,0,3,520,62,0,0,0
8,0,0,0,0,0,520,63,0,0,0
9,0,0,0,0,0,519,63,0,0,0
10,0,0,0,0,0,521,63,0,0,0
11,0,0,0,0,3,515,63,0,0,0
12,0,0,0,0,0,518,63,0,0,0
13,0,0,0,0,0,517,63,0,0,0
14,0,0,0,0,0,515,63,0,0,0
15,0,0,0,0,3,510,63,0,0,0
0,0,0,0,0,0,511,61,0,0,0
1,0,0,0,0,0,507,63,0,0,0
2,0,0,0,0,0,506,63,0,0,0
3,0,0,0,0,3,500,62,0,0,0
4,0,0,0,0,0,504,61,0,0,0
5,0,0,0,0,0,502,63,0,0,0
6,0,0,0,0,0,499,63,0,0,0
7,0,0,0,0,3,496,63,0,0,0
8,0,0,0,0,0,496,60,0,0,0
9,0,0,0,0,0,490,62,0,0,0
10,0,0,0,0,0,492,61,0,0,0
11,0,0,0,0,3,492,62,0,0,0
12,0,0,0,0,0,509,63,0,0,0
13,0,0,0,0,0,517,63,0,0,0
14,0,0,0,0,0,527,63,0,0,0
15,0,0,0,0,3,531,63,0,0,0
0,0,0,0,0,0,534,63,0,0,0
1,0,0,0,0,0,531,62,0,0,0
2,0,0,0,0,0,535,61,0,0,0
3,0,0,0,0,3,534,61,0,0,0
4,0,0,0,0,0,536,62,0,0,0
5,0,0,0,0,0,529,60,0,0,0
6,0,0,0,0,0,526,62,0,0,0
7,0,0,0,0,1,518,63,0,0,0
8,0,0,0,0,0,519,63,0,0,0
9,0,0,0,0,0,515,63,0,0,0
10,0,0,0,0,0,516,63,0,0,0
11,0,0,0,0,3,512,63,0,0,0
12,0,0,0,0,0,512,63,0,0,0
13,0,0,0,0,0,509,63,0,0,0
14,0,0,0,0,0,511,62,0,0,0
15,0,0,0,0,3,510,60,0,0,0
0,0,0,0,0,0,510,61,0,0,0
1,0,0,0,0,0,509,61,0,0,0
2,0,0,0,0,0,513,62,0,0,0
3,0,0,0,0,3,508,62,0,0,0
4,0,0,0,0,0,509,60,0,0,0
5,0,0,0,0,0,508,63,0,0,0
6,0,0,0,0,0,511,63,0,0,0
7,0,0,0,0,3,509,61,0,0,0
8,0,0,0,0,0,512,60,0,0,0
9,0,0,0,0,0,513,60,0,0,0
10,0,0,0,0,0,514,62,0,0,0
11,0,0,0,0,3,512,63,0,0,0
12,0,0,0,0,1,512,63,0,0,0
13,0,0,0,0,0,510,62,0,0,0
14,0,0,0,0,0,512,61,0,0,0
15,0,0,0,0,3,510,61,0,0,0
0,0,0,0,0,0,513,62,0,0,0
1,0,0,0,0,0,509,62,0,0,0
2,0,0,0,0,0,513,63,0,0,0
3,0,0,0,0,3,514,63,0,0,0
4,0,0,0,0,0,515,61,0,0,0
5,0,0,0,0,0,512,61,0,0,0
6,0,0,0,0,0,513,60,0,0,0
7,0,0,0,0,3,506,61,0,0,0
8,0,0,0,0,0,508,63,0,0,0
9,0,0,0,0,0,505,63,0,0,0
10,0,0,0,0,0,503,62,0,0,0
11,0,0,0,0,3,501,63,0,0,0
12,0,0,0,0,0,508,61,0,0,0
13,0,0,0,0,0,505,62,0,0,0
14,0,0,0,0,0,516,61,0,0,0
15,0,0,0,0,3,519,62,0,0,0
0,0,0,0,0,0,524,63,0,0,0
1,0,0,0,0,0,520,63,0,0,0
2,0,0,0,0,0,522,63,0,0,0
3,0,0,0,0,1,520,63,0,0,0
4,0,0,0,0,0,526,63,0,0,0
5,0,0,0,0,0,525,62,0,0,0
6,0,0,0,0,0,527,61,0,0,0
7,0,0,0,0,3,504,61,0,0,0
8,0,0,0,0,0,451,63,0,0,0
9,0,0,0,0,0,472,63,0,0,0
10,0,0,0,0,0,541,63,0,0,0
11,0,0,0,0,3,562,63,0,0,0
12,0,0,0,0,0,508,63,0,0,0
13,0,0,0,0,0,515,61,0,0,0
14,0,0,0,0,0,525,61,0,0,0
15,0,0,0,0,3,521,60,0,0,0
0,0,0,0,0,0,523,61,0,0,0
1,0,0,0,0,0,520,61,0,0,0
2,0,0,0,0,0,524,61,0,0,0
3,0,0,0,0,3,519,62,0,0,0
4,0,0,0,0,0,518,62,0,0,0
5,0,0,0,0,0,512,60,0,0,0
6,0,0,0,0,0,511,61,0,0,0
7,0,0,0,0,3,506,61,0,0,0
8,0,0,0,0,0,508,63,0,0,0
9,0,0,0,0,0,503,63,0,0,0
10,0,0,0,0,0,500,63,0,0,0
11,0,0,0,0,3,496,63,0,0,0
12,0,0,0,0,0,497,61,0,0,0
13,0,0,0,0,0,492,61,0,0,0
14,0,0,0,0,0,492,63,0,0,0
15,0,0,0,0,3,489,61,0,0,0
0,0,0,0,0,0,488,61,0,0,0
1,0,0,0,0,0,486,62,0,0,0
2,0,0,0,0,0,494,63,0,0,0
3,0,0,0,0,3,499,63,0,0,0
4,0,0,0,0,0,511,63,0,0,0
5,0,0,0,0,0,514,63,0,0,0
6,0,0,0,0,0,520,63,0,0,0
7,0,0,0,0,3,521,61,0,0,0
8,0,0,0,0,0,526,63,0,0,0
9,0,0,0,0,0,524,63,0,0,0
10,0,0,0,0,0,524,63,0,0,0
11,0,0,0,0,3,519,63,0,0,0
12,0,0,0,0,0,519,62,0,0,0
13,0,0,0,0,0,514,63,0,0,0
14,0,0,0,0,0,511,63,0,0,0
15,0,0,0,0,1,506,62,0,0,0
0,0,0,0,0,0,505,63,0,0,0
1,0,0,0,0,0,502,63,0,0,0
2,0,0,0,0,0,499,63,0,0,0
3,0,0,0,0,3,498,63,0,0,0
4,0,0,0,0,0,506,63,0,0,0
5,0,0,0,0,0,505,63,0,0,0
6,0,0,0,0,0,507,63,0,0,0
7,0,0,0,0,3,501,63,0,0,0
8,0,0,0,0,0,500,63,0,0,0
9,0,0,0,0,0,497,63,0,0,0
10,0,0,0,0,0,501,63,0,0,0
11,0,0,0,0,3,501,62,0,0,0
12,0,0,0,0,0,507,62,0,0,0
13,0,0,0,0,0,504,60,0,0,0
14,0,0,0,0,0,509,61,0,0,0
15,0,0,0,0,3,507,60,0,0,0
0,0,0,0,0,0,511,60,0,0,0
1,0,0,0,0,0,506,61,0,0,0
2,0,0,0,0,0,504,62,0,0,0
3,0,0,0,0,3,501,62,0,0,0
4,0,0,0,0,0,505,63,0,0,0
5,0,0,0,0,0,505,63,0,0,0
6,0,0,0,0,0,509,63,0,0,0
7,0,0,0,0,3,503,63,0,0,0
8,0,0,0,0,0,501,62,0,0,0
9,0,0,0,0,0,504,60,0,0,0
10,0,0,0,0,0,499,60,0,0,0
11,0,0,0,0,3,500,62,0,0,0
12,0,0,0,0,0,504,63,0,0,0
13,0,0,0,0,0,501,63,0,0,0
14,0,0,0,0,0,508,63,0,0,0
15,0,0,0,0,3,513,63,0,0,0
0,0,0,0,0,0,519,63,0,0,0
1,0,0,0,0,0,516,63,0,0,0
2,0,0,0,0,0,518,63,0,0,0
3,0,0,0,0,3,511,63,0,0,0
4,0,0,0,0,0,512,63,0,0,0
5,0,0,0,0,0,513,63,0,0,0
6,0,0,0,0,0,509,63,0,0,0
7,0,0,0,0,3,472,63,0,0,0
8,0,0,0,0,0,443,63,0,0,0
9,0,0,0,0,0,472,63,0,0,0
10,0,0,0,0,0,554,61,0,0,0
11,0,0,0,0,1,520,60,0,0,0
12,0,0,0,0,0,492,61,0,0,0
13,0,0,0,0,0,505,61,0,0,0
14,0,0,0,0,0,512,60,0,0,0
15,0,0,0,0,3,507,62,0,0,0
0,0,0,0,0,0,509,63,0,0,0
1,0,0,0,0,0,505,63,0,0,0
2,0,0,0,0,0,508,63,0,0,0
3,0,0,0,0,3,507,62,0,0,0
4,0,0,0,0,0,508,61,0,0,0
5,0,0,0,0,0,503,61,0,0,0
6,0,0,0,0,0,503,63,0,0,0
7,0,0,0,0,3,498,63,0,0,0
8,0,0,0,0,0,499,63,0,0,0
9,0,0,0,0,0,495,63,0,0,0
10,0,0,0,0,0,497,62,0,0,0
11,0,0,0,0,3,493,61,0,0,0
12,0,0,0,0,0,492,62,0,0,0
13,0,0,0,0,0,486,63,0,0,0
14,0,0,0,0,0,487,62,0,0,0
15,0,0,0,0,3,486,61,0,0,0
0,0,0,0,0,0,489,62,0,0,0
1,0,0,0,0,0,487,61,0,0,0
2,0,0,0,0,0,500,61,0,0,0
3,0,0,0,0,3,508,63,0,0,0
4,0,0,0,0,0,520,63,0,0,0
5,0,0,0,0,0,524,63,0,0,0
6,0,0,0,0,0,529,63,0,0,0
7,0,0,0,0,3,531,63,0,0,0
8,0,0,0,0,0,534,63,0,0,0
9,0,0,0,0,0,527,63,0,0,0
10,0,0,0,0,0,531,63,0,0,0
11,0,0,0,0,3,530,63,0,0,0
12,0,0,0,0,0,530,63,0,0,0
13,0,0,0,0,0,527,63,0,0,0
14,0,0,0,0,0,525,63,0,0,0
15,0,0,0,0,3,519,63,0,0,0
0,0,0,0,0,0,520,64,0,0,0
1,0,0,0,0,0,510,63,0,0,0
2,0,0,0,0,0,511,63,0,0,0
3,0,0,0,0,3,512,63,0,0,0
4,0,0,0,0,0,520,61,0,0,0
5,0,0,0,0,0,524,63,0,0,0
6,0,0,0,0,0,527,63,0,0,0
7,0,0,0,0,1,521,63,0,0,0
8,0,0,0,0,0,524,61,0,0,0
9,0,0,0,0,0,523,61,0,0,0
10,0,0,0,0,0,526,62,0,0,0
11,0,0,0,0,3,518,62,0,0,0
12,0,0,0,0,0,521,63,0,0,0
13,0,0,0,0,0,525,63,0,0,0
14,0,0,0,0,0,527,63,0,0,0
15,0,0,0,0,3,526,61,0,0,0
0,0,0,0,0,0,529,62,0,0,0
1,0,0,0,0,0,527,63,0,0,0
2,0,0,0,0,0,530,64,0,0,0
3,0,0,0,0,3,528,63,0,0,0
4,0,0,0,0,0,526,63,0,0,0
5,0,0,0,0,0,521,62,0,0,0
6,0,0,0,0,0,524,61,0,0,0
7,0,0,0,0,3,518,62,0,0,0
8,0,0,0,0,0,515,61,0,0,0
9,0,0,0,0,0,512,61,0,0,0
10,0,0,0,0,0,510,61,0,0,0
11,0,0,0,0,1,510,62,0,0,0
12,0,0,0,0,0,517,63,0,0,0
13,0,0,0,0,0,520,63,0,0,0
14,0,0,0,0,0,522,64,0,0,0
15,0,0,0,0,3,523,64,0,0,0
0,0,0,0,0,0,530,63,0,0,0
1,0,0,0,0,0,528,62,0,0,0
2,0,0,0,0,0,534,62,0,0,0
3,0,0,0,0,3,533,62,0,0,0
4,0,0,0,0,0,524,64,0,0,0
5,0,0,0,0,0,473,63,0,0,0
6,0,0,0,0,0,482,62,0,0,0
7,0,0,0,0,3,527,61,0,0,0
8,0,0,0,0,0,574,62,0,0,0
9,0,0,0,0,0,512,62,0,0,0
10,0,0,0,0,0,515,62,0,0,0
11,0,0,0,0,3,522,62,0,0,0
12,0,0,0,0,0,523,62,0,0,0
13,0,0,0,0,0,514,64,0,0,0
14,0,0,0,0,0,512,64,0,0,0
15,0,0,0,0,3,510,64,0,0,0
0,0,0,0,0,0,512,63,0,0,0
1,0,0,0,0,0,510,62,0,0,0
2,0,0,0,0,0,517,62,0,0,0
3,0,0,0,0,3,518,63,0,0,0
4,0,0,0,0,0,525,64,0,0,0
5,0,0,0,0,0,526,64,0,0,0
6,0,0,0,0,0,526,64,0,0,0
7,0,0,0,0,3,524,64,0,0,0
8,0,0,0,0,0,525,64,0,0,0
9,0,0,0,0,0,517,62,0,0,0
10,0,0,0,0,0,516,63,0,0,0
11,0,0,0,0,3,512,64,0,0,0
12,0,0,0,0,0,516,64,0,0,0
13,0,0,0,0,0,512,64,0,0,0
14,0,0,0,0,0,513,65,0,0,0
15,0,0,0,0,3,508,64,0,0,0
0,0,0,0,0,0,518,64,0,0,0
1,0,0,0,0,0,524,64,0,0,0
2,0,0,0,0,0,529,64,0,0,0
3,0,0,0,0,3,529,64,0,0,0
4,0,0,0,0,0,536,64,0,0,0
5,0,0,0,0,0,534,64,0,0,0
6,0,0,0,0,0,536,64,0,0,0
7,0,0,0,0,1,531,62,0,0,0
8,0,0,0,0,0,532,62,0,0,0
9,0,0,0,0,0,524,62,0,0,0
10,0,0,0,0,0,523,62,0,0,0
11,0,0,0,0,3,516,64,0,0,0
12,0,0,0,0,0,519,64,0,0,0
13,0,0,0,0,0,514,64,0,0,0
14,0,0,0,0,0,514,64,0,0,0
15,0,0,0,0,3,505,63,0,0,0
0,0,0,0,0,0,503,63,0,0,0
1,0,0,0,0,0,500,64,0,0,0
2,0,0,0,0,0,508,65,0,0,0
3,0,0,0,0,3,504,65,0,0,0
4,0,0,0,0,0,508,62,0,0,0
5,0,0,0,0,0,504,65,0,0,0
6,0,0,0,0,0,508,63,0,0,0
7,0,0,0,0,3,504,65,0,0,0
8,0,0,0,0,0,508,63,0,0,0
9,0,0,0,0,0,504,63,0,0,0
10,0,0,0,0,0,505,65,0,0,0
11,0,0,0,0,3,504,64,0,0,0
12,0,0,0,0,0,506,62,0,0,0
13,0,0,0,0,0,505,65,0,0,0
14,0,0,0,0,0,510,63,0,0,0
15,0,0,0,0,3,508,62,0,0,0
0,0,0,0,0,0,515,65,0,0,0
1,0,0,0,0,0,513,64,0,0,0
2,0,0,0,0,0,516,65,0,0,0
3,0,0,0,0,3,509,62,0,0,0
4,0,0,0,0,0,512,64,0,0,0
5,0,0,0,0,0,507,64,0,0,0
6,0,0,0,0,0,510,64,0,0,0
7,0,0,0,0,3,508,65,0,0,0
8,0,0,0,0,0,507,63,0,0,0
9,0,0,0,0,0,501,62,0,0,0
10,0,0,0,0,0,506,63,0,0,0
11,0,0,0,0,3,504,65,0,0,0
12,0,0,0,0,0,516,63,0,0,0
13,0,0,0,0,0,518,64,0,0,0
14,0,0,0,0,0,523,64,0,0,0
15,0,0,0,0,3,523,63,0,0,0
0,0,0,0,0,0,530,62,0,0,0
1,0,0,0,0,0,524,63,0,0,0
2,0,0,0,0,0,524,64,0,0,0
3,0,0,0,0,1,519,65,0,0,0
4,0,0,0,0,0,526,62,0,0,0
5,0,0,0,0,0,512,65,0,0,0
6,0,0,0,0,0,463,63,0,0,0
7,0,0,0,0,3,453,64,0,0,0
8,0,0,0,0,0,509,64,0,0,0
9,0,0,0,0,0,576,63,0,0,0
10,0,0,0,0,0,523,65,0,0,0
11,0,0,0,0,3,518,63,0,0,0
12,0,0,0,0,0,531,65,0,0,0
13,0,0,0,0,0,531,62,0,0,0
14,0,0,0,0,0,536,64,0,0,0
15,0,0,0,0,3,530,65,0,0,0
0,0,0,0,0,0,535,62,0,0,0
1,0,0,0,0,0,529,64,0,0,0
2,0,0,0,0,0,529,65,0,0,0
3,0,0,0,0,3,519,62,0,0,0
4,0,0,0,0,0,523,65,0,0,0
5,0,0,0,0,0,521,63,0,0,0
6,0,0,0,0,0,525,65,0,0,0
7,0,0,0,0,3,516,64,0,0,0
8,0,0,0,0,0,514,63,0,0,0
9,0,0,0,0,0,506,65,0,0,0
10,0,0,0,0,0,505,62,0,0,0
11,0,0,0,0,3,496,65,0,0,0
12,0,0,0,0,0,496,62,0,0,0
13,0,0,0,0,0,489,65,0,0,0
14,0,0,0,0,0,492,63,0,0,0
15,0,0,0,0,3,492,65,0,0,0
0,0,0,0,0,0,499,63,0,0,0
1,0,0,0,0,0,501,64,0,0,0
2,0,0,0,0,0,511,65,0,0,0
3,0,0,0,0,3,514,62,0,0,0
4,0,0,0,0,0,521,64,0,0,0
5,0,0,0,0,0,520,64,0,0,0
6,0,0,0,0,0,523,64,0,0,0
7,0,0,0,0,3,519,63,0,0,0
8,0,0,0,0,0,521,64,0,0,0
9,0,0,0,0,0,514,64,0,0,0
10,0,0,0,0,0,514,65,0,0,0
11,0,0,0,0,3,507,64,0,0,0
12,0,0,0,0,0,505,62,0,0,0
13,0,0,0,0,0,499,65,0,0,0
14,0,0,0,0,0,501,63,0,0,0
15,0,0,0,0,1,499,63,0,0,0
0,0,0,0,0,0,502,65,0,0,0
1,0,0,0,0,0,499,63,0,0,0
2,0,0,0,0,0,502,65,0,0,0
3,0,0,0,0,3,499,62,0,0,0
4,0,0,0,0,0,508,65,0,0,0
5,0,0,0,0,0,504,62,0,0,0
6,0,0,0,0,0,508,64,0,0,0
7,0,0,0,0,3,508,65,0,0,0
8,0,0,0,0,0,513,62,0,0,0
9,0,0,0,0,0,511,64,0,0,0
10,0,0,0,0,0,512,65,0,0,0
11,0,0,0,0,3,507,63,0,0,0
12,0,0,0,0,0,507,63,0,0,0
13,0,0,0,0,0,507,64,0,0,0
14,0,0,0,0,0,511,64,0,0,0
15,0,0,0,0,3,509,62,0,0,0
0,0,0,0,0,0,509,65,0,0,0
1,0,0,0,0,0,506,62,0,0,0
2,0,0,0,0,0,509,63,0,0,0
3,0,0,0,0,3,505,64,0,0,0
4,0,0,0,0,0,511,62,0,0,0
5,0,0,0,0,0,508,64,0,0,0
6,0,0,0,0,0,508,65,0,0,0
7,0,0,0,0,3,500,63,0,0,0
8,0,0,0,0,0,497,62,0,0,0
9,0,0,0,0,0,494,62,0,0,0
10,0,0,0,0,0,498,64,0,0,0
11,0,0,0,0,3,496,62,0,0,0
12,0,0,0,0,0,499,64,0,0,0
13,0,0,0,0,0,493,63,0,0,0
14,0,0,0,0,0,498,62,0,0,0
15,0,0,0,0,3,500,63,0,0,0
0,0,0,0,0,0,502,64,0,0,0
1,0,0,0,0,0,500,63,0,0,0
2,0,0,0,0,0,505,63,0,0,0
3,0,0,0,0,3,500,63,0,0,0
4,0,0,0,0,0,500,62,0,0,0
5,0,0,0,0,0,494,64,0,0,0
6,0,0,0,0,0,495,63,0,0,0
7,0,0,0,0,3,495,62,0,0,0
8,0,0,0,0,0,503,63,0,0,0
9,0,0,0,0,0,499,64,0,0,0
10,0,0,0,0,0,504,63,0,0,0
11,0,0,0,0,1,505,62,0,0,0
12,0,0,0,0,0,510,63,0,0,0
13,0,0,0,0,0,514,64,0,0,0
14,0,0,0,0,0,508,63,0,0,0
15,0,0,0,0,3,499,64,0,0,0
0,0,0,0,0,0,500,62,0,0,0
1,0,0,0,0,0,493,64,0,0,0
2,0,0,0,0,0,498,62,0,0,0
3,0,0,0,0,3,498,62,0,0,0
4,0,0,0,0,0,502,62,0,0,0
5,0,0,0,0,0,508,64,0,0,0
6,0,0,0,0,0,510,64,0,0,0
7,0,0,0,0,3,504,62,0,0,0
8,0,0,0,0,0,508,64,0,0,0
9,0,0,0,0,0,504,62,0,0,0
10,0,0,0,0,0,505,63,0,0,0
11,0,0,0,0,3,500,64,0,0,0
12,0,0,0,0,0,504,62,0,0,0
13,0,0,0,0,0,504,64,0,0,0
14,0,0,0,0,0,480,64,0,0,0
15,0,0,0,0,3,430,64,0,0,0
0,0,0,0,0,0,455,62,0,0,0
1,0,0,0,0,0,519,65,0,0,0
2,0,0,0,0,0,552,63,0,0,0
3,0,0,0,0,3,502,64,0,0,0
4,0,0,0,0,0,521,64,0,0,0
5,0,0,0,0,0,525,62,0,0,0
6,0,0,0,0,0,524,63,0,0,0
7,0,0,0,0,3,519,64,0,0,0
8,0,0,0,0,0,515,64,0,0,0
