0,1,2,3,4,5,6,7,8,9,10
15,0,0,0,0,3,521,74,0,0,0
0,0,0,0,0,0,530,72,0,0,0
1,0,0,0,0,0,522,72,0,0,0
2,0,0,0,0,0,504,73,0,0,0
3,0,0,0,0,3,492,75,0,0,0
4,0,0,0,0,0,512,74,0,0,0
5,0,0,0,0,0,549,74,0,0,0
6,0,0,0,0,0,547,74,0,0,0
7,0,0,0,0,3,519,72,0,0,0
8,0,0,0,0,0,512,73,0,0,0
9,0,0,0,0,0,513,72,0,0,0
10,0,0,0,0,0,529,75,0,0,0
11,0,0,0,0,3,516,72,0,0,0
12,0,0,0,0,0,514,73,0,0,0
13,0,0,0,0,0,530,74,0,0,0
14,0,0,0,0,0,534,75,0,0,0
15,0,0,0,0,0,559,75,0,0,0
0,0,0,0,0,0,550,74,0,0,0
1,0,0,0,0,0,540,75,0,0,0
2,0,0,0,0,0,515,75,0,0,0
3,0,0,0,0,3,550,74,0,0,0
4,0,0,0,0,0,510,73,0,0,0
5,0,0,0,0,0,518,75,0,0,0
6,0,0,0,0,0,524,75,0,0,0
7,0,0,0,0,3,487,73,0,0,0
8,0,0,0,0,0,510,73,0,0,0
9,0,0,0,0,0,508,74,0,0,0
10,0,0,0,0,0,490,75,0,0,0
11,0,0,0,0,3,483,73,0,0,0
12,0,0,0,0,0,471,74,0,0,0
13,0,0,0,0,0,460,75,0,0,0
14,0,0,0,0,0,511,72,0,0,0
15,0,0,0,0,3,495,75,0,0,0
0,0,0,0,0,0,483,72,0,0,0
1,0,0,0,0,0,460,74,0,0,0
2,0,0,0,0,0,421,72,0,0,0
3,0,0,0,0,1,455,75,0,0,0
4,0,0,0,0,0,492,75,0,0,0
5,0,0,0,0,0,473,74,0,0,0
6,0,0,0,0,0,503,73,0,0,0
7,0,0,0,0,3,510,74,0,0,0
8,0,0,0,0,0,508,75,0,0,0
9,0,0,0,0,0,504,73,0,0,0
10,0,0,0,0,0,504,73,0,0,0
11,0,0,0,0,3,531,73,0,0,0
12,0,0,0,0,0,511,75,0,0,0
13,0,0,0,0,0,490,75,0,0,0
14,0,0,0,0,0,491,75,0,0,0
15,0,0,0,0,3,467,74,0,0,0
0,0,0,0,0,0,466,73,0,0,0
1,0,0,0,0,0,470,74,0,0,0
2,0,0,0,0,0,455,75,0,0,0
3,0,0,0,0,3,429,75,0,0,0
4,0,0,0,0,0,462,72,0,0,0
5,0,0,0,0,0,452,74,0,0,0
6,0,0,0,0,0,452,75,0,0,0
7,0,0,0,0,3,463,73,0,0,0
8,0,0,0,0,0,459,73,0,0,0
9,0,0,0,0,0,488,74,0,0,0
10,0,0,0,0,0,508,75,0,0,0
11,0,0,0,0,3,521,74,0,0,0
12,0,0,0,0,0,529,73,0,0,0
13,0,0,0,0,0,499,75,0,0,0
14,0,0,0,0,0,510,75,0,0,0
15,0,0,0,0,3,509,73,0,0,0
0,0,0,0,0,0,514,75,0,0,0
1,0,0,0,0,0,540,75,0,0,0
2,0,0,0,0,0,524,73,0,0,0
3,0,0,0,0,3,442,75,0,0,0
4,0,0,0,0,0,442,75,0,0,0
5,0,0,0,0,0,536,75,0,0,0
6,0,0,0,0,0,592,73,0,0,0
7,0,0,0,0,3,540,73,0,0,0
8,0,0,0,0,0,527,75,0,0,0
9,0,0,0,0,0,547,75,0,0,0
10,0,0,0,0,0,551,73,0,0,0
11,0,0,0,0,3,548,75,0,0,0
12,0,0,0,0,0,537,76,0,0,0
13,0,0,0,0,0,536,76,0,0,0
14,0,0,0,0,0,541,74,0,0,0
15,0,0,0,0,0,543,74,0,0,0
0,0,0,0,0,0,542,73,0,0,0
1,0,0,0,0,0,536,74,0,0,0
2,0,0,0,0,0,546,76,0,0,0
3,0,0,0,0,3,543,75,0,0,0
4,0,0,0,0,0,546,76,0,0,0
5,0,0,0,0,0,531,76,0,0,0
6,0,0,0,0,0,518,76,0,0,0
7,0,0,0,0,3,505,76,0,0,0
8,0,0,0,0,0,523,74,0,0,0
9,0,0,0,0,0,529,77,0,0,0
10,0,0,0,0,0,522,77,0,0,0
11,0,0,0,0,3,511,75,0,0,0
12,0,0,0,0,0,513,75,0,0,0
13,0,0,0,0,0,505,77,0,0,0
14,0,0,0,0,0,487,77,0,0,0
15,0,0,0,0,3,534,77,0,0,0
0,0,0,0,0,0,543,76,0,0,0
1,0,0,0,0,0,543,75,0,0,0
2,0,0,0,0,0,542,76,0,0,0
3,0,0,0,0,3,510,77,0,0,0
4,0,0,0,0,0,516,76,0,0,0
5,0,0,0,0,0,550,76,0,0,0
6,0,0,0,0,0,519,76,0,0,0
7,0,0,0,0,3,514,76,0,0,0
8,0,0,0,0,0,521,76,0,0,0
9,0,0,0,0,0,504,77,0,0,0
10,0,0,0,0,0,537,74,0,0,0
11,0,0,0,0,3,530,77,0,0,0
12,0,0,0,0,0,530,74,0,0,0
13,0,0,0,0,0,524,74,0,0,0
14,0,0,0,0,0,489,75,0,0,0
15,0,0,0,0,3,538,76,0,0,0
0,0,0,0,0,0,542,75,0,0,0
1,0,0,0,0,0,517,73,0,0,0
2,0,0,0,0,0,521,74,0,0,0
3,0,0,0,0,3,502,74,0,0,0
4,0,0,0,0,0,481,76,0,0,0
5,0,0,0,0,0,488,76,0,0,0
6,0,0,0,0,0,489,76,0,0,0
7,0,0,0,0,3,467,76,0,0,0
8,0,0,0,0,0,483,76,0,0,0
9,0,0,0,0,0,462,76,0,0,0
10,0,0,0,0,0,483,75,0,0,0
11,0,0,0,0,0,465,74,0,0,0
12,0,0,0,0,0,456,75,0,0,0
13,0,0,0,0,0,491,72,0,0,0
14,0,0,0,0,0,471,73,0,0,0
15,0,0,0,0,3,464,74,0,0,0
0,0,0,0,0,0,454,74,0,0,0
1,0,0,0,0,0,489,74,0,0,0
2,0,0,0,0,0,463,72,0,0,0
3,0,0,0,0,3,456,71,0,0,0
4,0,0,0,0,0,480,74,0,0,0
5,0,0,0,0,0,492,73,0,0,0
6,0,0,0,0,0,466,73,0,0,0
7,0,0,0,0,3,511,73,0,0,0
8,0,0,0,0,0,513,73,0,0,0
9,0,0,0,0,0,481,73,0,0,0
10,0,0,0,0,0,492,71,0,0,0
11,0,0,0,0,3,477,70,0,0,0
12,0,0,0,0,0,492,70,0,0,0
13,0,0,0,0,0,516,70,0,0,0
14,0,0,0,0,0,495,72,0,0,0
15,0,0,0,0,3,516,71,0,0,0
0,0,0,0,0,0,502,72,0,0,0
1,0,0,0,0,0,513,72,0,0,0
2,0,0,0,0,0,547,72,0,0,0
3,0,0,0,0,3,537,71,0,0,0
4,0,0,0,0,0,523,71,0,0,0
5,0,0,0,0,0,553,69,0,0,0
6,0,0,0,0,0,529,70,0,0,0
7,0,0,0,0,3,529,70,0,0,0
8,0,0,0,0,0,530,70,0,0,0
9,0,0,0,0,0,492,71,0,0,0
10,0,0,0,0,0,440,71,0,0,0
11,0,0,0,0,3,508,69,0,0,0
12,0,0,0,0,0,596,68,0,0,0
13,0,0,0,0,0,524,71,0,0,0
14,0,0,0,0,0,511,71,0,0,0
15,0,0,0,0,3,567,68,0,0,0
0,0,0,0,0,0,571,68,0,0,0
1,0,0,0,0,0,548,70,0,0,0
2,0,0,0,0,0,557,70,0,0,0
3,0,0,0,0,3,535,70,0,0,0
4,0,0,0,0,0,536,69,0,0,0
5,0,0,0,0,0,555,67,0,0,0
6,0,0,0,0,0,545,68,0,0,0
7,0,0,0,0,1,534,70,0,0,0
8,0,0,0,0,0,525,68,0,0,0
9,0,0,0,0,0,522,67,0,0,0
10,0,0,0,0,0,508,68,0,0,0
11,0,0,0,0,3,511,69,0,0,0
12,0,0,0,0,0,515,68,0,0,0
13,0,0,0,0,0,518,68,0,0,0
14,0,0,0,0,0,519,67,0,0,0
15,0,0,0,0,3,522,68,0,0,0
0,0,0,0,0,0,531,66,0,0,0
1,0,0,0,0,0,531,67,0,0,0
2,0,0,0,0,0,542,67,0,0,0
3,0,0,0,0,3,549,68,0,0,0
4,0,0,0,0,0,565,68,0,0,0
5,0,0,0,0,0,581,69,0,0,0
6,0,0,0,0,0,601,68,0,0,0
7,0,0,0,0,3,620,68,0,0,0
8,0,0,0,0,0,630,68,0,0,0
9,0,0,0,0,0,632,67,0,0,0
10,0,0,0,0,0,630,66,0,0,0
11,0,0,0,0,3,627,65,0,0,0
12,0,0,0,0,0,623,67,0,0,0
13,0,0,0,0,0,615,68,0,0,0
14,0,0,0,0,0,605,67,0,0,0
15,0,0,0,0,3,593,66,0,0,0
0,0,0,0,0,0,583,65,0,0,0
1,0,0,0,0,0,577,68,0,0,0
2,0,0,0,0,0,565,66,0,0,0
3,0,0,0,0,3,552,65,0,0,0
4,0,0,0,0,0,537,65,0,0,0
5,0,0,0,0,0,520,65,0,0,0
6,0,0,0,0,0,513,65,0,0,0
7,0,0,0,0,3,511,67,0,0,0
8,0,0,0,0,0,504,67,0,0,0
9,0,0,0,0,0,503,67,0,0,0
10,0,0,0,0,0,493,67,0,0,0
11,0,0,0,0,3,489,66,0,0,0
12,0,0,0,0,0,484,65,0,0,0
13,0,0,0,0,0,485,65,0,0,0
14,0,0,0,0,0,497,67,0,0,0
15,0,0,0,0,3,502,67,0,0,0
0,0,0,0,0,0,489,67,0,0,0
1,0,0,0,0,0,475,67,0,0,0
2,0,0,0,0,0,473,65,0,0,0
3,0,0,0,0,0,463,64,0,0,0
4,0,0,0,0,0,469,65,0,0,0
5,0,0,0,0,0,468,67,0,0,0
6,0,0,0,0,0,461,67,0,0,0
7,0,0,0,0,3,468,66,0,0,0
8,0,0,0,0,0,459,67,0,0,0
9,0,0,0,0,0,463,67,0,0,0
10,0,0,0,0,0,466,66,0,0,0
11,0,0,0,0,3,460,64,0,0,0
12,0,0,0,0,0,455,67,0,0,0
13,0,0,0,0,0,449,67,0,0,0
14,0,0,0,0,0,455,67,0,0,0
15,0,0,0,0,3,465,67,0,0,0
0,0,0,0,0,0,476,66,0,0,0
1,0,0,0,0,0,496,66,0,0,0
2,0,0,0,0,0,513,65,0,0,0
3,0,0,0,0,3,515,64,0,0,0
4,0,0,0,0,0,510,66,0,0,0
5,0,0,0,0,0,505,66,0,0,0
6,0,0,0,0,0,503,64,0,0,0
7,0,0,0,0,3,511,65,0,0,0
8,0,0,0,0,0,506,66,0,0,0
9,0,0,0,0,0,464,64,0,0,0
10,0,0,0,0,0,421,64,0,0,0
11,0,0,0,0,3,478,64,0,0,0
12,0,0,0,0,0,580,66,0,0,0
13,0,0,0,0,0,540,66,0,0,0
14,0,0,0,0,0,507,63,0,0,0
15,0,0,0,0,3,515,66,0,0,0
0,0,0,0,0,0,513,66,0,0,0
1,0,0,0,0,0,520,65,0,0,0
2,0,0,0,0,0,524,64,0,0,0
3,0,0,0,0,3,518,66,0,0,0
4,0,0,0,0,0,519,64,0,0,0
5,0,0,0,0,0,533,66,0,0,0
6,0,0,0,0,0,542,66,0,0,0
7,0,0,0,0,3,539,65,0,0,0
8,0,0,0,0,0,533,65,0,0,0
9,0,0,0,0,0,524,66,0,0,0
10,0,0,0,0,0,512,66,0,0,0
11,0,0,0,0,3,512,66,0,0,0
12,0,0,0,0,0,518,66,0,0,0
13,0,0,0,0,0,520,64,0,0,0
14,0,0,0,0,0,518,63,0,0,0
15,0,0,0,0,0,517,66,0,0,0
0,0,0,0,0,0,507,66,0,0,0
1,0,0,0,0,0,501,65,0,0,0
2,0,0,0,0,0,506,65,0,0,0
3,0,0,0,0,3,515,66,0,0,0
4,0,0,0,0,0,516,64,0,0,0
5,0,0,0,0,0,528,64,0,0,0
6,0,0,0,0,0,543,66,0,0,0
7,0,0,0,0,3,538,63,0,0,0
8,0,0,0,0,0,515,67,0,0,0
9,0,0,0,0,0,495,66,0,0,0
10,0,0,0,0,0,479,64,0,0,0
11,0,0,0,0,3,477,67,0,0,0
12,0,0,0,0,0,473,65,0,0,0
13,0,0,0,0,0,464,64,0,0,0
14,0,0,0,0,0,471,64,0,0,0
15,0,0,0,0,3,471,63,0,0,0
0,0,0,0,0,0,465,64,0,0,0
1,0,0,0,0,0,469,65,0,0,0
2,0,0,0,0,0,478,67,0,0,0
3,0,0,0,0,3,479,66,0,0,0
4,0,0,0,0,0,478,65,0,0,0
5,0,0,0,0,0,472,64,0,0,0
6,0,0,0,0,0,460,64,0,0,0
7,0,0,0,0,3,465,64,0,0,0
8,0,0,0,0,0,463,64,0,0,0
9,0,0,0,0,0,469,66,0,0,0
10,0,0,0,0,0,491,64,0,0,0
11,0,0,0,0,3,492,64,0,0,0
12,0,0,0,0,0,483,66,0,0,0
13,0,0,0,0,0,484,66,0,0,0
14,0,0,0,0,0,483,66,0,0,0
15,0,0,0,0,3,479,66,0,0,0
0,0,0,0,0,0,483,65,0,0,0
1,0,0,0,0,0,494,64,0,0,0
2,0,0,0,0,0,495,66,0,0,0
3,0,0,0,0,3,505,66,0,0,0
4,0,0,0,0,0,517,67,0,0,0
5,0,0,0,0,0,523,67,0,0,0
6,0,0,0,0,0,503,67,0,0,0
7,0,0,0,0,3,491,67,0,0,0
8,0,0,0,0,0,479,66,0,0,0
9,0,0,0,0,0,475,66,0,0,0
10,0,0,0,0,0,492,66,0,0,0
11,0,0,0,0,0,499,67,0,0,0
12,0,0,0,0,0,517,66,0,0,0
13,0,0,0,0,0,537,67,0,0,0
14,0,0,0,0,0,545,64,0,0,0
15,0,0,0,0,3,542,66,0,0,0
0,0,0,0,0,0,534,66,0,0,0
1,0,0,0,0,0,531,67,0,0,0
2,0,0,0,0,0,521,67,0,0,0
3,0,0,0,0,3,515,64,0,0,0
4,0,0,0,0,0,519,65,0,0,0
5,0,0,0,0,0,504,66,0,0,0
6,0,0,0,0,0,438,67,0,0,0
7,0,0,0,0,3,441,66,0,0,0
8,0,0,0,0,0,521,65,0,0,0
9,0,0,0,0,0,536,66,0,0,0
10,0,0,0,0,0,474,67,0,0,0
11,0,0,0,0,3,489,66,0,0,0
12,0,0,0,0,0,498,64,0,0,0
13,0,0,0,0,0,515,67,0,0,0
14,0,0,0,0,0,510,66,0,0,0
15,0,0,0,0,1,506,64,0,0,0
0,0,0,0,0,0,507,65,0,0,0
1,0,0,0,0,0,508,67,0,0,0
2,0,0,0,0,0,502,66,0,0,0
3,0,0,0,0,3,499,65,0,0,0
4,0,0,0,0,0,495,66,0,0,0
5,0,0,0,0,0,489,66,0,0,0
6,0,0,0,0,0,487,67,0,0,0
7,0,0,0,0,3,488,67,0,0,0
8,0,0,0,0,0,493,64,0,0,0
9,0,0,0,0,0,500,67,0,0,0
10,0,0,0,0,0,499,67,0,0,0
11,0,0,0,0,3,504,66,0,0,0
12,0,0,0,0,0,507,65,0,0,0
13,0,0,0,0,0,499,65,0,0,0
14,0,0,0,0,0,505,67,0,0,0
15,0,0,0,0,3,508,67,0,0,0
0,0,0,0,0,0,512,67,0,0,0
1,0,0,0,0,0,508,67,0,0,0
2,0,0,0,0,0,455,67,0,0,0
3,0,0,0,0,3,287,66,0,0,0
4,0,0,0,0,0,203,65,0,0,0
5,0,0,0,0,0,171,65,0,0,0
6,0,0,0,0,0,163,66,0,0,0
7,0,0,0,0,3,165,65,0,0,0
8,0,0,0,0,0,176,65,0,0,0
9,0,0,0,0,0,198,65,0,0,0
10,0,0,0,0,0,188,65,0,0,0
11,0,0,0,0,3,160,65,0,0,0
12,0,0,0,0,1,169,65,0,0,0
13,0,0,0,0,0,191,65,0,0,0
14,0,0,0,0,0,218,66,0,0,0
15,0,0,0,0,3,246,66,0,0,0
0,0,0,0,0,0,274,66,0,0,0
1,0,0,0,0,0,306,65,0,0,0
2,0,0,0,0,0,337,67,0,0,0
3,0,0,0,0,3,367,67,0,0,0
4,0,0,0,0,0,393,65,0,0,0
5,0,0,0,0,0,415,65,0,0,0
6,0,0,0,0,0,440,66,0,0,0
7,0,0,0,0,3,460,65,0,0,0
8,0,0,0,0,0,479,64,0,0,0
9,0,0,0,0,0,497,66,0,0,0
10,0,0,0,0,0,515,66,0,0,0
11,0,0,0,0,0,531,66,0,0,0
12,0,0,0,0,0,548,66,0,0,0
13,0,0,0,0,0,568,66,0,0,0
14,0,0,0,0,0,582,67,0,0,0
15,0,0,0,0,3,595,66,0,0,0
0,0,0,0,0,0,600,64,0,0,0
1,0,0,0,0,0,604,67,0,0,0
2,0,0,0,0,0,609,66,0,0,0
3,0,0,0,0,3,618,67,0,0,0
4,0,0,0,0,0,616,66,0,0,0
5,0,0,0,0,0,618,65,0,0,0
6,0,0,0,0,0,622,63,0,0,0
7,0,0,0,0,3,614,65,0,0,0
8,0,0,0,0,0,614,66,0,0,0
9,0,0,0,0,0,613,66,0,0,0
10,0,0,0,0,0,613,64,0,0,0
11,0,0,0,0,3,625,66,0,0,0
12,0,0,0,0,0,636,65,0,0,0
13,0,0,0,0,0,638,65,0,0,0
14,0,0,0,0,0,646,65,0,0,0
15,0,0,0,0,3,652,63,0,0,0
0,0,0,0,0,0,707,65,0,0,0
1,0,0,0,0,0,728,65,0,0,0
2,0,0,0,0,0,699,66,0,0,0
3,0,0,0,0,3,657,64,0,0,0
4,0,0,0,0,0,586,63,0,0,0
5,0,0,0,0,0,536,65,0,0,0
6,0,0,0,0,0,588,65,0,0,0
7,0,0,0,0,3,669,63,0,0,0
8,0,0,0,0,0,597,63,0,0,0
9,0,0,0,0,0,592,65,0,0,0
10,0,0,0,0,0,604,66,0,0,0
11,0,0,0,0,3,604,65,0,0,0
12,0,0,0,0,0,602,63,0,0,0
13,0,0,0,0,0,598,65,0,0,0
14,0,0,0,0,0,591,65,0,0,0
15,0,0,0,0,3,592,64,0,0,0
0,0,0,0,0,0,598,62,0,0,0
1,0,0,0,0,0,595,62,0,0,0
2,0,0,0,0,0,588,63,0,0,0
3,0,0,0,0,3,585,63,0,0,0
4,0,0,0,0,0,579,63,0,0,0
5,0,0,0,0,0,570,63,0,0,0
6,0,0,0,0,0,567,63,0,0,0
7,0,0,0,0,0,565,64,0,0,0
8,0,0,0,0,0,556,63,0,0,0
9,0,0,0,0,0,556,62,0,0,0
10,0,0,0,0,0,546,65,0,0,0
11,0,0,0,0,3,543,65,0,0,0
12,0,0,0,0,0,540,65,0,0,0
13,0,0,0,0,0,538,65,0,0,0
14,0,0,0,0,0,541,65,0,0,0
15,0,0,0,0,3,552,65,0,0,0
0,0,0,0,0,0,559,65,0,0,0
1,0,0,0,0,0,567,62,0,0,0
2,0,0,0,0,0,575,65,0,0,0
3,0,0,0,0,3,577,65,0,0,0
4,0,0,0,0,0,575,64,0,0,0
5,0,0,0,0,0,575,62,0,0,0
6,0,0,0,0,0,568,62,0,0,0
7,0,0,0,0,3,566,63,0,0,0
8,0,0,0,0,0,564,62,0,0,0
9,0,0,0,0,0,563,63,0,0,0
10,0,0,0,0,0,562,63,0,0,0
11,0,0,0,0,3,556,64,0,0,0
12,0,0,0,0,0,550,65,0,0,0
13,0,0,0,0,0,552,65,0,0,0
14,0,0,0,0,0,553,65,0,0,0
15,0,0,0,0,3,555,62,0,0,0
0,0,0,0,0,0,554,62,0,0,0
1,0,0,0,0,0,558,63,0,0,0
2,0,0,0,0,0,556,63,0,0,0
3,0,0,0,0,3,555,63,0,0,0
4,0,0,0,0,0,554,63,0,0,0
5,0,0,0,0,0,554,64,0,0,0
6,0,0,0,0,0,550,65,0,0,0
7,0,0,0,0,3,549,65,0,0,0
8,0,0,0,0,0,544,64,0,0,0
9,0,0,0,0,0,545,62,0,0,0
10,0,0,0,0,0,547,62,0,0,0
11,0,0,0,0,3,550,65,0,0,0
12,0,0,0,0,0,550,64,0,0,0
13,0,0,0,0,0,555,65,0,0,0
14,0,0,0,0,0,558,65,0,0,0
15,0,0,0,0,3,559,65,0,0,0
0,0,0,0,0,0,555,65,0,0,0
1,0,0,0,0,0,552,64,0,0,0
2,0,0,0,0,1,548,64,0,0,0
3,0,0,0,0,1,543,63,0,0,0
4,0,0,0,0,0,536,62,0,0,0
5,0,0,0,0,0,534,62,0,0,0
6,0,0,0,0,0,533,65,0,0,0
7,0,0,0,0,3,525,64,0,0,0
8,0,0,0,0,0,519,64,0,0,0
9,0,0,0,0,0,517,62,0,0,0
10,0,0,0,0,0,508,62,0,0,0
11,0,0,0,0,3,511,63,0,0,0
12,0,0,0,0,0,512,64,0,0,0
13,0,0,0,0,0,513,64,0,0,0
14,0,0,0,0,0,520,63,0,0,0
15,0,0,0,0,3,528,62,0,0,0
0,0,0,0,0,0,532,64,0,0,0
1,0,0,0,0,0,531,64,0,0,0
2,0,0,0,0,0,527,63,0,0,0
3,0,0,0,0,3,528,63,0,0,0
4,0,0,0,0,0,525,63,0,0,0
5,0,0,0,0,0,528,62,0,0,0
6,0,0,0,0,0,516,63,0,0,0
7,0,0,0,0,3,461,64,0,0,0
8,0,0,0,0,0,433,64,0,0,0
9,0,0,0,0,0,492,64,0,0,0
10,0,0,0,0,0,573,63,0,0,0
11,0,0,0,0,3,509,62,0,0,0
12,0,0,0,0,0,499,62,0,0,0
13,0,0,0,0,0,515,62,0,0,0
14,0,0,0,0,0,512,61,0,0,0
15,0,0,0,0,3,509,62,0,0,0
0,0,0,0,0,1,504,61,0,0,0
1,0,0,0,0,0,500,61,0,0,0
2,0,0,0,0,0,502,61,0,0,0
3,0,0,0,0,3,504,62,0,0,0
4,0,0,0,0,0,499,62,0,0,0
5,0,0,0,0,0,502,62,0,0,0
6,0,0,0,0,0,498,62,0,0,0
7,0,0,0,0,3,493,63,0,0,0
8,0,0,0,0,0,487,64,0,0,0
9,0,0,0,0,0,485,63,0,0,0
10,0,0,0,0,0,480,62,0,0,0
11,0,0,0,0,3,478,63,0,0,0
12,0,0,0,0,0,472,62,0,0,0
13,0,0,0,0,0,471,62,0,0,0
14,0,0,0,0,0,467,63,0,0,0
15,0,0,0,0,1,464,63,0,0,0
0,0,0,0,0,0,464,63,0,0,0
1,0,0,0,0,0,478,63,0,0,0
2,0,0,0,0,1,486,62,0,0,0
3,0,0,0,0,3,503,62,0,0,0
4,0,0,0,0,0,512,63,0,0,0
5,0,0,0,0,0,520,63,0,0,0
6,0,0,0,0,0,522,63,0,0,0
7,0,0,0,0,3,521,61,0,0,0
8,0,0,0,0,0,519,63,0,0,0
9,0,0,0,0,0,517,62,0,0,0
10,0,0,0,0,0,517,62,0,0,0
11,0,0,0,0,3,512,63,0,0,0
12,0,0,0,0,0,508,63,0,0,0
13,0,0,0,0,0,504,62,0,0,0
14,0,0,0,0,1,502,61,0,0,0
15,0,0,0,0,3,499,61,0,0,0
0,0,0,0,0,0,487,63,0,0,0
1,0,0,0,0,0,487,63,0,0,0
2,0,0,0,0,0,491,63,0,0,0
3,0,0,0,0,3,495,62,0,0,0
4,0,0,0,0,0,496,61,0,0,0
5,0,0,0,0,0,493,62,0,0,0
6,0,0,0,0,0,488,62,0,0,0
7,0,0,0,0,3,489,62,0,0,0
8,0,0,0,0,0,484,62,0,0,0
9,0,0,0,0,0,485,62,0,0,0
10,0,0,0,0,0,480,63,0,0,0
11,0,0,0,0,3,483,61,0,0,0
12,0,0,0,0,0,484,61,0,0,0
13,0,0,0,0,0,486,62,0,0,0
14,0,0,0,0,0,485,63,0,0,0
15,0,0,0,0,3,488,63,0,0,0
0,0,0,0,0,1,487,63,0,0,0
1,0,0,0,0,0,482,62,0,0,0
2,0,0,0,0,0,481,63,0,0,0
3,0,0,0,0,3,478,63,0,0,0
4,0,0,0,0,0,465,62,0,0,0
5,0,0,0,0,0,454,61,0,0,0
6,0,0,0,0,0,445,63,0,0,0
7,0,0,0,0,3,450,63,0,0,0
8,0,0,0,0,0,455,63,0,0,0
9,0,0,0,0,0,466,62,0,0,0
10,0,0,0,0,0,468,60,0,0,0
11,0,0,0,0,1,472,62,0,0,0
12,0,0,0,0,1,480,62,0,0,0
13,0,0,0,0,0,487,63,0,0,0
14,0,0,0,0,0,487,63,0,0,0
15,0,0,0,0,3,502,63,0,0,0
0,0,0,0,0,0,511,63,0,0,0
1,0,0,0,0,0,514,63,0,0,0
2,0,0,0,0,0,513,63,0,0,0
3,0,0,0,0,3,516,61,0,0,0
4,0,0,0,0,0,518,61,0,0,0
5,0,0,0,0,0,522,60,0,0,0
6,0,0,0,0,0,526,60,0,0,0
7,0,0,0,0,3,519,62,0,0,0
8,0,0,0,0,0,486,62,0,0,0
9,0,0,0,0,0,444,61,0,0,0
10,0,0,0,0,0,485,60,0,0,0
11,0,0,0,0,3,569,62,0,0,0
12,0,0,0,0,0,542,63,0,0,0
13,0,0,0,0,0,508,62,0,0,0
14,0,0,0,0,1,521,60,0,0,0
15,0,0,0,0,3,529,60,0,0,0
0,0,0,0,0,0,526,63,0,0,0
1,0,0,0,0,0,524,63,0,0,0
2,0,0,0,0,0,520,63,0,0,0
3,0,0,0,0,3,518,61,0,0,0
4,0,0,0,0,0,516,61,0,0,0
5,0,0,0,0,0,524,63,0,0,0
6,0,0,0,0,0,527,63,0,0,0
7,0,0,0,0,3,530,61,0,0,0
8,0,0,0,0,0,528,62,0,0,0
9,0,0,0,0,0,524,62,0,0,0
10,0,0,0,0,1,518,62,0,0,0
11,0,0,0,0,3,520,62,0,0,0
12,0,0,0,0,0,518,60,0,0,0
13,0,0,0,0,0,519,60,0,0,0
14,0,0,0,0,0,520,62,0,0,0
15,0,0,0,0,3,523,61,0,0,0
0,0,0,0,0,0,518,60,0,0,0
1,0,0,0,0,0,516,61,0,0,0
2,0,0,0,0,0,517,63,0,0,0
3,0,0,0,0,3,522,63,0,0,0
4,0,0,0,0,0,523,63,0,0,0
5,0,0,0,0,0,532,62,0,0,0
6,0,0,0,0,0,535,62,0,0,0
7,0,0,0,0,0,538,62,0,0,0
8,0,0,0,0,0,534,62,0,0,0
9,0,0,0,0,0,531,62,0,0,0
10,0,0,0,0,0,528,62,0,0,0
11,0,0,0,0,3,530,62,0,0,0
12,0,0,0,0,1,527,63,0,0,0
13,0,0,0,0,0,524,62,0,0,0
14,0,0,0,0,0,517,63,0,0,0
15,0,0,0,0,3,519,62,0,0,0
0,0,0,0,0,0,515,62,0,0,0
1,0,0,0,0,0,519,61,0,0,0
2,0,0,0,0,0,516,61,0,0,0
3,0,0,0,0,3,510,61,0,0,0
4,0,0,0,0,0,504,61,0,0,0
5,0,0,0,0,0,509,61,0,0,0
6,0,0,0,0,0,510,60,0,0,0
7,0,0,0,0,3,515,59,0,0,0
8,0,0,0,0,0,516,62,0,0,0
9,0,0,0,0,0,515,62,0,0,0
10,0,0,0,0,0,511,62,0,0,0
11,0,0,0,0,1,508,61,0,0,0
12,0,0,0,0,0,508,60,0,0,0
13,0,0,0,0,0,512,61,0,0,0
14,0,0,0,0,0,508,60,0,0,0
15,0,0,0,0,3,516,59,0,0,0
0,0,0,0,0,0,515,60,0,0,0
1,0,0,0,0,0,519,62,0,0,0
2,0,0,0,0,0,520,61,0,0,0
3,0,0,0,0,3,516,59,0,0,0
4,0,0,0,0,0,515,60,0,0,0
5,0,0,0,0,0,516,60,0,0,0
6,0,0,0,0,0,511,60,0,0,0
7,0,0,0,0,3,515,60,0,0,0
8,0,0,0,0,0,518,59,0,0,0
9,0,0,0,0,0,520,61,0,0,0
10,0,0,0,0,0,517,60,0,0,0
11,0,0,0,0,3,517,60,0,0,0
12,0,0,0,0,0,515,59,0,0,0
13,0,0,0,0,0,513,61,0,0,0
14,0,0,0,0,0,509,62,0,0,0
15,0,0,0,0,3,512,61,0,0,0
0,0,0,0,0,0,510,60,0,0,0
1,0,0,0,0,0,521,60,0,0,0
2,0,0,0,0,0,525,61,0,0,0
3,0,0,0,0,3,527,60,0,0,0
4,0,0,0,0,0,519,61,0,0,0
5,0,0,0,0,0,519,62,0,0,0
6,0,0,0,0,1,518,61,0,0,0
7,0,0,0,0,3,522,60,0,0,0
8,0,0,0,0,0,520,61,0,0,0
9,0,0,0,0,0,522,62,0,0,0
10,0,0,0,0,0,492,62,0,0,0
11,0,0,0,0,3,445,61,0,0,0
12,0,0,0,0,1,476,62,0,0,0
13,0,0,0,0,0,558,61,0,0,0
14,0,0,0,0,0,552,61,0,0,0
15,0,0,0,0,3,512,60,0,0,0
0,0,0,0,0,0,524,59,0,0,0
1,0,0,0,0,0,535,60,0,0,0
2,0,0,0,0,0,535,59,0,0,0
3,0,0,0,0,3,532,61,0,0,0
4,0,0,0,0,0,527,61,0,0,0
5,0,0,0,0,0,526,62,0,0,0
6,0,0,0,0,0,517,62,0,0,0
7,0,0,0,0,1,515,62,0,0,0
8,0,0,0,0,0,510,62,0,0,0
9,0,0,0,0,0,511,62,0,0,0
10,0,0,0,0,0,507,62,0,0,0
11,0,0,0,0,3,512,62,0,0,0
12,0,0,0,0,0,509,61,0,0,0
13,0,0,0,0,0,509,59,0,0,0
14,0,0,0,0,0,505,61,0,0,0
15,0,0,0,0,3,508,61,0,0,0
0,0,0,0,0,0,503,59,0,0,0
1,0,0,0,0,0,503,60,0,0,0
2,0,0,0,0,0,504,60,0,0,0
3,0,0,0,0,3,509,59,0,0,0
4,0,0,0,0,0,511,59,0,0,0
5,0,0,0,0,0,515,59,0,0,0
6,0,0,0,0,0,524,59,0,0,0
7,0,0,0,0,3,530,59,0,0,0
8,0,0,0,0,0,533,59,0,0,0
9,0,0,0,0,0,536,62,0,0,0
10,0,0,0,0,0,528,62,0,0,0
11,0,0,0,0,3,529,61,0,0,0
12,0,0,0,0,0,524,61,0,0,0
13,0,0,0,0,0,521,59,0,0,0
14,0,0,0,0,0,520,60,0,0,0
15,0,0,0,0,3,523,59,0,0,0
0,0,0,0,0,0,522,59,0,0,0
1,0,0,0,0,0,519,60,0,0,0
2,0,0,0,0,0,514,61,0,0,0
3,0,0,0,0,3,513,59,0,0,0
4,0,0,0,0,0,511,60,0,0,0
5,0,0,0,0,0,512,59,0,0,0
6,0,0,0,0,0,511,60,0,0,0
7,0,0,0,0,3,513,59,0,0,0
8,0,0,0,0,0,510,59,0,0,0
9,0,0,0,0,0,511,60,0,0,0
10,0,0,0,0,0,511,60,0,0,0
11,0,0,0,0,3,510,61,0,0,0
12,0,0,0,0,0,508,62,0,0,0
13,0,0,0,0,0,510,62,0,0,0
14,0,0,0,0,0,506,60,0,0,0
15,0,0,0,0,3,511,59,0,0,0
0,0,0,0,0,0,513,59,0,0,0
1,0,0,0,0,0,514,60,0,0,0
2,0,0,0,0,0,507,61,0,0,0
3,0,0,0,0,0,507,60,0,0,0
4,0,0,0,0,0,505,61,0,0,0
5,0,0,0,0,0,511,62,0,0,0
6,0,0,0,0,0,513,61,0,0,0
7,0,0,0,0,3,519,61,0,0,0
8,0,0,0,0,0,517,59,0,0,0
9,0,0,0,0,0,519,60,0,0,0
10,0,0,0,0,0,518,61,0,0,0
11,0,0,0,0,3,527,61,0,0,0
12,0,0,0,0,0,522,60,0,0,0
13,0,0,0,0,0,520,59,0,0,0
14,0,0,0,0,0,508,61,0,0,0
15,0,0,0,0,3,502,60,0,0,0
0,0,0,0,0,0,495,59,0,0,0
1,0,0,0,0,0,498,59,0,0,0
2,0,0,0,0,0,496,59,0,0,0
3,0,0,0,0,3,490,60,0,0,0
4,0,0,0,0,0,487,61,0,0,0
5,0,0,0,0,0,469,61,0,0,0
6,0,0,0,0,0,456,61,0,0,0
7,0,0,0,0,3,461,61,0,0,0
8,0,0,0,0,0,463,60,0,0,0
9,0,0,0,0,0,469,61,0,0,0
10,0,0,0,0,0,469,60,0,0,0
11,0,0,0,0,3,480,59,0,0,0
12,0,0,0,0,0,489,59,0,0,0
13,0,0,0,0,0,496,59,0,0,0
14,0,0,0,0,0,496,60,0,0,0
15,0,0,0,0,3,495,60,0,0,0
0,0,0,0,0,0,498,61,0,0,0
1,0,0,0,0,0,500,61,0,0,0
2,0,0,0,0,0,505,61,0,0,0
3,0,0,0,0,3,515,59,0,0,0
4,0,0,0,0,0,515,61,0,0,0
5,0,0,0,0,0,525,61,0,0,0
6,0,0,0,0,0,527,61,0,0,0
7,0,0,0,0,3,529,61,0,0,0
8,0,0,0,0,0,527,61,0,0,0
9,0,0,0,0,0,529,61,0,0,0
10,0,0,0,0,0,525,61,0,0,0
11,0,0,0,0,3,520,61,0,0,0
12,0,0,0,0,0,515,60,0,0,0
13,0,0,0,0,0,518,60,0,0,0
14,0,0,0,0,0,482,61,0,0,0
15,0,0,0,0,1,434,61,0,0,0
0,0,0,0,0,0,455,59,0,0,0
1,0,0,0,0,0,541,60,0,0,0
2,0,0,0,0,1,522,61,0,0,0
3,0,0,0,0,3,497,59,0,0,0
4,0,0,0,0,0,513,58,0,0,0
5,0,0,0,0,0,521,58,0,0,0
6,0,0,0,0,0,519,60,0,0,0
7,0,0,0,0,3,519,61,0,0,0
8,0,0,0,0,0,515,60,0,0,0
9,0,0,0,0,0,517,60,0,0,0
10,0,0,0,0,0,523,59,0,0,0
11,0,0,0,0,3,530,60,0,0,0
12,0,0,0,0,0,528,59,0,0,0
13,0,0,0,0,0,523,58,0,0,0
14,0,0,0,0,0,518,58,0,0,0
15,0,0,0,0,3,518,60,0,0,0
0,0,0,0,0,0,515,60,0,0,0
1,0,0,0,0,0,519,61,0,0,0
2,0,0,0,0,0,517,60,0,0,0
3,0,0,0,0,3,518,60,0,0,0
4,0,0,0,0,0,509,60,0,0,0
5,0,0,0,0,0,511,60,0,0,0
6,0,0,0,0,0,507,61,0,0,0
7,0,0,0,0,3,512,61,0,0,0
8,0,0,0,0,0,512,61,0,0,0
9,0,0,0,0,0,519,60,0,0,0
10,0,0,0,0,0,523,61,0,0,0
11,0,0,0,0,3,533,61,0,0,0
12,0,0,0,0,0,533,61,0,0,0
13,0,0,0,0,0,538,60,0,0,0
14,0,0,0,0,0,534,59,0,0,0
15,0,0,0,0,3,531,58,0,0,0
0,0,0,0,0,0,523,58,0,0,0
1,0,0,0,0,0,522,58,0,0,0
2,0,0,0,0,0,516,60,0,0,0
3,0,0,0,0,3,519,60,0,0,0
4,0,0,0,0,0,512,60,0,0,0
5,0,0,0,0,0,510,57,0,0,0
6,0,0,0,0,0,506,58,0,0,0
7,0,0,0,0,3,505,59,0,0,0
8,0,0,0,0,0,502,60,0,0,0
9,0,0,0,0,0,502,60,0,0,0
10,0,0,0,0,0,498,59,0,0,0
11,0,0,0,0,1,494,59,0,0,0
12,0,0,0,0,0,488,57,0,0,0
13,0,0,0,0,0,494,57,0,0,0
14,0,0,0,0,0,494,58,0,0,0
15,0,0,0,0,3,498,58,0,0,0
0,0,0,0,0,0,498,57,0,0,0
1,0,0,0,0,0,501,58,0,0,0
2,0,0,0,0,0,502,60,0,0,0
3,0,0,0,0,3,505,60,0,0,0
4,0,0,0,0,0,504,59,0,0,0
5,0,0,0,0,0,505,59,0,0,0
6,0,0,0,0,0,503,59,0,0,0
7,0,0,0,0,3,511,60,0,0,0
8,0,0,0,0,0,511,59,0,0,0
9,0,0,0,0,0,516,58,0,0,0
10,0,0,0,0,0,519,58,0,0,0
11,0,0,0,0,3,524,60,0,0,0
12,0,0,0,0,0,516,60,0,0,0
13,0,0,0,0,0,515,60,0,0,0
14,0,0,0,0,0,504,60,0,0,0
15,0,0,0,0,3,502,59,0,0,0
0,0,0,0,0,0,500,59,0,0,0
1,0,0,0,0,0,504,59,0,0,0
2,0,0,0,0,0,506,59,0,0,0
3,0,0,0,0,3,510,60,0,0,0
4,0,0,0,0,0,503,59,0,0,0
5,0,0,0,0,0,499,59,0,0,0
6,0,0,0,0,0,499,60,0,0,0
7,0,0,0,0,3,500,59,0,0,0
8,0,0,0,0,0,493,57,0,0,0
9,0,0,0,0,0,500,57,0,0,0
10,0,0,0,0,0,499,59,0,0,0
11,0,0,0,0,3,501,57,0,0,0
12,0,0,0,0,0,493,59,0,0,0
13,0,0,0,0,0,494,59,0,0,0
14,0,0,0,0,0,487,59,0,0,0
15,0,0,0,0,3,490,59,0,0,0
0,0,0,0,0,0,491,59,0,0,0
1,0,0,0,0,0,496,59,0,0,0
2,0,0,0,0,0,495,57,0,0,0
3,0,0,0,0,3,494,57,0,0,0
4,0,0,0,0,0,493,59,0,0,0
5,0,0,0,0,0,499,59,0,0,0
6,0,0,0,0,0,503,59,0,0,0
7,0,0,0,0,0,503,56,0,0,0
8,0,0,0,0,0,497,59,0,0,0
9,0,0,0,0,0,498,60,0,0,0
10,0,0,0,0,0,499,57,0,0,0
11,0,0,0,0,3,499,59,0,0,0
12,0,0,0,0,0,500,59,0,0,0
13,0,0,0,0,0,508,59,0,0,0
14,0,0,0,0,0,514,58,0,0,0
15,0,0,0,0,3,524,59,0,0,0
0,0,0,0,0,0,528,57,0,0,0
1,0,0,0,0,0,531,57,0,0,0
2,0,0,0,0,0,527,57,0,0,0
3,0,0,0,0,3,523,58,0,0,0
4,0,0,0,0,0,511,59,0,0,0
5,0,0,0,0,0,507,59,0,0,0
6,0,0,0,0,0,512,59,0,0,0
7,0,0,0,0,3,500,58,0,0,0
8,0,0,0,0,0,431,58,0,0,0
9,0,0,0,0,0,425,57,0,0,0
10,0,0,0,0,0,492,58,0,0,0
11,0,0,0,0,3,558,59,0,0,0
12,0,0,0,0,0,501,58,0,0,0
13,0,0,0,0,0,508,58,0,0,0
14,0,0,0,0,0,513,57,0,0,0
15,0,0,0,0,3,516,57,0,0,0
0,0,0,0,0,0,512,58,0,0,0
1,0,0,0,0,0,511,59,0,0,0
2,0,0,0,0,0,508,59,0,0,0
3,0,0,0,0,3,505,56,0,0,0
4,0,0,0,0,0,505,56,0,0,0
5,0,0,0,0,0,510,59,0,0,0
6,0,0,0,0,0,513,59,0,0,0
7,0,0,0,0,3,514,57,0,0,0
8,0,0,0,0,0,506,56,0,0,0
9,0,0,0,0,0,504,56,0,0,0
10,0,0,0,0,0,497,56,0,0,0
11,0,0,0,0,3,495,58,0,0,0
12,0,0,0,0,0,490,58,0,0,0
13,0,0,0,0,0,491,56,0,0,0
14,0,0,0,0,0,487,56,0,0,0
15,0,0,0,0,3,488,57,0,0,0
0,0,0,0,0,0,480,58,0,0,0
1,0,0,0,0,0,476,58,0,0,0
2,0,0,0,0,0,476,57,0,0,0
3,0,0,0,0,0,491,57,0,0,0
4,0,0,0,0,0,508,57,0,0,0
5,0,0,0,0,0,523,56,0,0,0
6,0,0,0,0,0,528,59,0,0,0
7,0,0,0,0,3,537,56,0,0,0
8,0,0,0,0,0,535,58,0,0,0
9,0,0,0,0,0,528,59,0,0,0
10,0,0,0,0,0,523,56,0,0,0
11,0,0,0,0,3,524,56,0,0,0
12,0,0,0,0,0,520,59,0,0,0
13,0,0,0,0,0,520,56,0,0,0
14,0,0,0,0,0,517,57,0,0,0
15,0,0,0,0,3,524,57,0,0,0
0,0,0,0,0,0,525,59,0,0,0
1,0,0,0,0,0,531,56,0,0,0
2,0,0,0,0,0,531,58,0,0,0
3,0,0,0,0,3,533,56,0,0,0
4,0,0,0,0,0,527,57,0,0,0
5,0,0,0,0,0,527,59,0,0,0
6,0,0,0,0,0,526,59,0,0,0
7,0,0,0,0,0,528,56,0,0,0
8,0,0,0,0,0,523,56,0,0,0
9,0,0,0,0,0,522,56,0,0,0
10,0,0,0,0,0,516,56,0,0,0
11,0,0,0,0,3,521,58,0,0,0
12,0,0,0,0,0,522,58,0,0,0
13,0,0,0,0,0,526,58,0,0,0
14,0,0,0,0,0,522,58,0,0,0
15,0,0,0,0,3,523,56,0,0,0
0,0,0,0,0,0,522,56,0,0,0
1,0,0,0,0,0,525,56,0,0,0
2,0,0,0,0,0,519,57,0,0,0
3,0,0,0,0,3,518,58,0,0,0
4,0,0,0,0,0,512,59,0,0,0
5,0,0,0,0,0,513,56,0,0,0
6,0,0,0,0,0,507,55,0,0,0
7,0,0,0,0,3,506,58,0,0,0
8,0,0,0,0,0,502,58,0,0,0
9,0,0,0,0,0,509,57,0,0,0
10,0,0,0,0,0,506,58,0,0,0
11,0,0,0,0,3,510,58,0,0,0
12,0,0,0,0,0,507,57,0,0,0
13,0,0,0,0,0,512,56,0,0,0
14,0,0,0,0,0,507,57,0,0,0
15,0,0,0,0,3,512,56,0,0,0
0,0,0,0,0,0,510,55,0,0,0
1,0,0,0,0,0,513,57,0,0,0
2,0,0,0,0,0,515,58,0,0,0
3,0,0,0,0,3,519,58,0,0,0
4,0,0,0,0,0,514,58,0,0,0
5,0,0,0,0,0,514,56,0,0,0
6,0,0,0,0,0,509,56,0,0,0
7,0,0,0,0,3,511,57,0,0,0
8,0,0,0,0,0,508,57,0,0,0
9,0,0,0,0,0,514,58,0,0,0
10,0,0,0,0,0,511,58,0,0,0
11,0,0,0,0,3,516,58,0,0,0
12,0,0,0,0,0,511,57,0,0,0
13,0,0,0,0,0,515,57,0,0,0
14,0,0,0,0,0,515,55,0,0,0
15,0,0,0,0,3,517,56,0,0,0
0,0,0,0,0,0,512,57,0,0,0
1,0,0,0,0,0,511,58,0,0,0
2,0,0,0,0,0,514,58,0,0,0
3,0,0,0,0,0,521,58,0,0,0
4,0,0,0,0,0,512,57,0,0,0
5,0,0,0,0,0,513,58,0,0,0
6,0,0,0,0,0,509,57,0,0,0
7,0,0,0,0,3,519,56,0,0,0
8,0,0,0,0,0,524,56,0,0,0
9,0,0,0,0,0,535,57,0,0,0
10,0,0,0,0,0,529,56,0,0,0
11,0,0,0,0,3,530,58,0,0,0
12,0,0,0,0,0,529,57,0,0,0
13,0,0,0,0,0,529,57,0,0,0
14,0,0,0,0,0,528,56,0,0,0
15,0,0,0,0,3,538,56,0,0,0
0,0,0,0,0,0,520,57,0,0,0
1,0,0,0,0,0,460,57,0,0,0
2,0,0,0,0,0,451,57,0,0,0
3,0,0,0,0,3,529,57,0,0,0
4,0,0,0,0,0,584,56,0,0,0
5,0,0,0,0,0,534,57,0,0,0
6,0,0,0,0,0,543,57,0,0,0
7,0,0,0,0,3,551,55,0,0,0
8,0,0,0,0,0,545,55,0,0,0
9,0,0,0,0,0,540,56,0,0,0
10,0,0,0,0,0,530,56,0,0,0
11,0,0,0,0,3,527,56,0,0,0
12,0,0,0,0,0,519,57,0,0,0
13,0,0,0,0,0,517,55,0,0,0
14,0,0,0,0,0,507,57,0,0,0
15,0,0,0,0,3,506,58,0,0,0
0,0,0,0,0,0,506,57,0,0,0
1,0,0,0,0,0,508,56,0,0,0
2,0,0,0,0,0,500,57,0,0,0
3,0,0,0,0,3,504,57,0,0,0
4,0,0,0,0,0,507,57,0,0,0
5,0,0,0,0,0,509,57,0,0,0
6,0,0,0,0,0,501,55,0,0,0
7,0,0,0,0,3,503,55,0,0,0
8,0,0,0,0,0,497,55,0,0,0
9,0,0,0,0,0,505,57,0,0,0
10,0,0,0,0,0,504,57,0,0,0
11,0,0,0,0,3,510,58,0,0,0
12,0,0,0,0,0,515,57,0,0,0
13,0,0,0,0,0,521,55,0,0,0
14,0,0,0,0,0,523,55,0,0,0
15,0,0,0,0,0,527,57,0,0,0
0,0,0,0,0,0,523,57,0,0,0
1,0,0,0,0,0,530,55,0,0,0
2,0,0,0,0,0,527,57,0,0,0
3,0,0,0,0,3,524,57,0,0,0
4,0,0,0,0,0,518,55,0,0,0
5,0,0,0,0,0,515,56,0,0,0
6,0,0,0,0,0,508,57,0,0,0
7,0,0,0,0,3,511,57,0,0,0
8,0,0,0,0,0,507,57,0,0,0
9,0,0,0,0,0,511,57,0,0,0
10,0,0,0,0,0,508,57,0,0,0
11,0,0,0,0,3,517,56,0,0,0
12,0,0,0,0,0,518,55,0,0,0
13,0,0,0,0,0,519,54,0,0,0
14,0,0,0,0,0,514,55,0,0,0
15,0,0,0,0,3,520,55,0,0,0
0,0,0,0,0,0,516,55,0,0,0
1,0,0,0,0,0,513,55,0,0,0
2,0,0,0,0,0,499,57,0,0,0
3,0,0,0,0,3,500,57,0,0,0
4,0,0,0,0,0,497,56,0,0,0
5,0,0,0,0,0,501,57,0,0,0
6,0,0,0,0,0,496,54,0,0,0
7,0,0,0,0,3,501,54,0,0,0
8,0,0,0,0,0,504,56,0,0,0
9,0,0,0,0,0,515,56,0,0,0
10,0,0,0,0,0,513,55,0,0,0
11,0,0,0,0,3,513,56,0,0,0
12,0,0,0,0,1,506,57,0,0,0
13,0,0,0,0,0,509,56,0,0,0
14,0,0,0,0,0,506,55,0,0,0
15,0,0,0,0,3,513,56,0,0,0
0,0,0,0,0,0,514,57,0,0,0
1,0,0,0,0,0,519,57,0,0,0
2,0,0,0,0,0,517,57,0,0,0
3,0,0,0,0,3,524,56,0,0,0
4,0,0,0,0,0,522,56,0,0,0
5,0,0,0,0,0,520,54,0,0,0
6,0,0,0,0,0,512,54,0,0,0
7,0,0,0,0,3,519,56,0,0,0
8,0,0,0,0,0,513,55,0,0,0
9,0,0,0,0,0,515,54,0,0,0
10,0,0,0,0,0,509,54,0,0,0
11,0,0,0,0,1,512,54,0,0,0
12,0,0,0,0,0,510,56,0,0,0
13,0,0,0,0,0,511,56,0,0,0
14,0,0,0,0,0,505,54,0,0,0
15,0,0,0,0,3,506,55,0,0,0
0,0,0,0,0,0,505,56,0,0,0
1,0,0,0,0,0,510,57,0,0,0
2,0,0,0,0,0,504,57,0,0,0
3,0,0,0,0,3,504,54,0,0,0
4,0,0,0,0,0,505,54,0,0,0
5,0,0,0,0,0,502,55,0,0,0
6,0,0,0,0,0,500,57,0,0,0
7,0,0,0,0,3,503,56,0,0,0
8,0,0,0,0,0,496,56,0,0,0
9,0,0,0,0,0,512,57,0,0,0
10,0,0,0,0,0,515,56,0,0,0
11,0,0,0,0,3,524,57,0,0,0
12,0,0,0,0,0,510,54,0,0,0
13,0,0,0,0,0,504,56,0,0,0
14,0,0,0,0,0,507,57,0,0,0
15,0,0,0,0,3,515,57,0,0,0
0,0,0,0,0,0,516,57,0,0,0
1,0,0,0,0,0,513,55,0,0,0
2,0,0,0,0,0,467,55,0,0,0
3,0,0,0,0,3,435,55,0,0,0
4,0,0,0,0,0,473,56,0,0,0
5,0,0,0,0,0,563,57,0,0,0
6,0,0,0,0,0,517,57,0,0,0
7,0,0,0,0,3,486,56,0,0,0
8,0,0,0,0,0,496,56,0,0,0
9,0,0,0,0,0,501,56,0,0,0
10,0,0,0,0,0,495,56,0,0,0
11,0,0,0,0,3,496,57,0,0,0
12,0,0,0,0,0,496,56,0,0,0
13,0,0,0,0,0,500,57,0,0,0
14,0,0,0,0,0,500,56,0,0,0
15,0,0,0,0,3,506,57,0,0,0
0,0,0,0,0,0,499,56,0,0,0
1,0,0,0,0,0,502,54,0,0,0
2,0,0,0,0,0,496,54,0,0,0
3,0,0,0,0,3,496,56,0,0,0
4,0,0,0,0,0,490,56,0,0,0
5,0,0,0,0,0,493,56,0,0,0
6,0,0,0,0,0,489,56,0,0,0
7,0,0,0,0,1,486,56,0,0,0
8,0,0,0,0,0,481,56,0,0,0
9,0,0,0,0,0,479,56,0,0,0
10,0,0,0,0,0,476,56,0,0,0
11,0,0,0,0,3,484,56,0,0,0
12,0,0,0,0,0,491,56,0,0,0
13,0,0,0,0,0,502,57,0,0,0
14,0,0,0,0,0,508,56,0,0,0
15,0,0,0,0,3,521,56,0,0,0
0,0,0,0,0,0,522,57,0,0,0
1,0,0,0,0,0,529,56,0,0,0
2,0,0,0,0,0,529,57,0,0,0
3,0,0,0,0,3,531,55,0,0,0
4,0,0,0,0,0,519,56,0,0,0
5,0,0,0,0,0,520,56,0,0,0
6,0,0,0,0,0,519,55,0,0,0
7,0,0,0,0,3,523,56,0,0,0
8,0,0,0,0,0,516,56,0,0,0
9,0,0,0,0,0,515,57,0,0,0
10,0,0,0,0,0,512,57,0,0,0
11,0,0,0,0,3,512,56,0,0,0
12,0,0,0,0,0,510,56,0,0,0
13,0,0,0,0,0,514,56,0,0,0
14,0,0,0,0,0,509,55,0,0,0
15,0,0,0,0,3,510,54,0,0,0
0,0,0,0,0,0,503,54,0,0,0
1,0,0,0,0,0,505,55,0,0,0
2,0,0,0,0,0,498,56,0,0,0
3,0,0,0,0,3,497,55,0,0,0
4,0,0,0,0,0,499,54,0,0,0
5,0,0,0,0,0,507,54,0,0,0
6,0,0,0,0,0,507,54,0,0,0
7,0,0,0,0,3,514,56,0,0,0
8,0,0,0,0,0,511,56,0,0,0
9,0,0,0,0,0,513,56,0,0,0
10,0,0,0,0,0,514,55,0,0,0
11,0,0,0,0,3,518,54,0,0,0
12,0,0,0,0,1,508,54,0,0,0
13,0,0,0,0,0,505,54,0,0,0
14,0,0,0,0,0,495,54,0,0,0
15,0,0,0,0,3,497,56,0,0,0
0,0,0,0,0,0,499,56,0,0,0
1,0,0,0,0,0,504,56,0,0,0
2,0,0,0,0,0,504,56,0,0,0
3,0,0,0,0,0,508,56,0,0,0
4,0,0,0,0,0,507,57,0,0,0
5,0,0,0,0,0,507,55,0,0,0
6,0,0,0,0,0,499,54,0,0,0
7,0,0,0,0,3,508,56,0,0,0
8,0,0,0,0,0,506,57,0,0,0
9,0,0,0,0,0,507,57,0,0,0
10,0,0,0,0,0,507,55,0,0,0
11,0,0,0,0,3,512,54,0,0,0
12,0,0,0,0,0,507,55,0,0,0
13,0,0,0,0,0,509,56,0,0,0
14,0,0,0,0,0,506,56,0,0,0
15,0,0,0,0,3,508,56,0,0,0
0,0,0,0,0,0,498,55,0,0,0
1,0,0,0,0,0,505,54,0,0,0
2,0,0,0,0,0,504,56,0,0,0
3,0,0,0,0,3,517,56,0,0,0
4,0,0,0,0,0,523,55,0,0,0
5,0,0,0,0,0,533,55,0,0,0
6,0,0,0,0,0,529,56,0,0,0
7,0,0,0,0,3,529,57,0,0,0
8,0,0,0,0,0,526,56,0,0,0
9,0,0,0,0,0,532,56,0,0,0
10,0,0,0,0,0,536,54,0,0,0
11,0,0,0,0,3,543,56,0,0,0
12,0,0,0,0,0,520,56,0,0,0
13,0,0,0,0,0,478,56,0,0,0
14,0,0,0,0,0,506,56,0,0,0
15,0,0,0,0,3,583,56,0,0,0
0,0,0,0,0,0,568,56,0,0,0
1,0,0,0,0,0,523,56,0,0,0
2,0,0,0,0,0,531,56,0,0,0
3,0,0,0,0,3,533,57,0,0,0
4,0,0,0,0,0,525,55,0,0,0
5,0,0,0,0,0,528,55,0,0,0
6,0,0,0,0,0,523,56,0,0,0
7,0,0,0,0,3,519,57,0,0,0
8,0,0,0,0,0,518,56,0,0,0
9,0,0,0,0,0,524,55,0,0,0
10,0,0,0,0,0,517,56,0,0,0
11,0,0,0,0,3,517,56,0,0,0
12,0,0,0,0,0,509,56,0,0,0
13,0,0,0,0,0,501,57,0,0,0
14,0,0,0,0,0,493,56,0,0,0
15,0,0,0,0,1,491,56,0,0,0
0,0,0,0,0,0,482,54,0,0,0
1,0,0,0,0,0,481,55,0,0,0
2,0,0,0,0,0,474,55,0,0,0
3,0,0,0,0,3,472,55,0,0,0
4,0,0,0,0,0,466,56,0,0,0
5,0,0,0,0,0,471,57,0,0,0
6,0,0,0,0,0,470,57,0,0,0
7,0,0,0,0,3,476,57,0,0,0
8,0,0,0,0,0,483,57,0,0,0
9,0,0,0,0,0,497,56,0,0,0
10,0,0,0,0,0,506,54,0,0,0
11,0,0,0,0,3,509,55,0,0,0
12,0,0,0,0,0,503,55,0,0,0
13,0,0,0,0,0,508,57,0,0,0
14,0,0,0,0,0,501,57,0,0,0
15,0,0,0,0,3,498,55,0,0,0
0,0,0,0,0,0,493,55,0,0,0
1,0,0,0,0,0,497,54,0,0,0
2,0,0,0,0,0,505,56,0,0,0
3,0,0,0,0,1,512,56,0,0,0
4,0,0,0,0,0,509,56,0,0,0
5,0,0,0,0,0,516,57,0,0,0
6,0,0,0,0,0,517,56,0,0,0
7,0,0,0,0,3,518,55,0,0,0
8,0,0,0,0,0,520,56,0,0,0
9,0,0,0,0,0,524,57,0,0,0
10,0,0,0,0,0,517,56,0,0,0
11,0,0,0,0,3,517,55,0,0,0
12,0,0,0,0,0,511,55,0,0,0
13,0,0,0,0,0,514,56,0,0,0
14,0,0,0,0,0,513,56,0,0,0
15,0,0,0,0,3,517,57,0,0,0
0,0,0,0,0,0,514,56,0,0,0
1,0,0,0,0,0,519,55,0,0,0
2,0,0,0,0,0,517,56,0,0,0
3,0,0,0,0,3,519,57,0,0,0
4,0,0,0,0,0,516,56,0,0,0
5,0,0,0,0,0,527,55,0,0,0
6,0,0,0,0,0,523,55,0,0,0
7,0,0,0,0,3,523,56,0,0,0
8,0,0,0,0,0,516,56,0,0,0
9,0,0,0,0,0,515,54,0,0,0
10,0,0,0,0,0,510,56,0,0,0
11,0,0,0,0,3,519,57,0,0,0
12,0,0,0,0,0,516,56,0,0,0
13,0,0,0,0,0,518,54,0,0,0
14,0,0,0,0,0,512,57,0,0,0
15,0,0,0,0,3,510,54,0,0,0
0,0,0,0,0,0,506,56,0,0,0
1,0,0,0,0,0,508,56,0,0,0
2,0,0,0,0,0,500,55,0,0,0
3,0,0,0,0,3,501,56,0,0,0
4,0,0,0,0,0,492,56,0,0,0
5,0,0,0,0,0,497,54,0,0,0
6,0,0,0,0,0,492,57,0,0,0
7,0,0,0,0,3,499,57,0,0,0
8,0,0,0,0,0,498,55,0,0,0
9,0,0,0,0,0,496,55,0,0,0
10,0,0,0,0,0,496,57,0,0,0
11,0,0,0,0,3,504,56,0,0,0
12,0,0,0,0,0,503,56,0,0,0
13,0,0,0,0,0,513,56,0,0,0
14,0,0,0,0,0,518,57,0,0,0
15,0,0,0,0,1,523,57,0,0,0
0,0,0,0,0,0,519,56,0,0,0
1,0,0,0,0,0,523,55,0,0,0
2,0,0,0,0,0,523,55,0,0,0
3,0,0,0,0,3,526,55,0,0,0
4,0,0,0,0,0,530,56,0,0,0
5,0,0,0,0,0,526,57,0,0,0
6,0,0,0,0,0,465,56,0,0,0
7,0,0,0,0,3,447,55,0,0,0
8,0,0,0,0,0,498,54,0,0,0
9,0,0,0,0,0,571,55,0,0,0
10,0,0,0,0,0,505,56,0,0,0
11,0,0,0,0,3,503,56,0,0,0
12,0,0,0,0,0,514,57,0,0,0
13,0,0,0,0,0,519,55,0,0,0
14,0,0,0,0,0,513,54,0,0,0
15,0,0,0,0,3,511,56,0,0,0
0,0,0,0,0,0,503,56,0,0,0
1,0,0,0,0,0,499,54,0,0,0
2,0,0,0,0,0,493,56,0,0,0
3,0,0,0,0,3,493,57,0,0,0
4,0,0,0,0,1,494,56,0,0,0
5,0,0,0,0,0,500,54,0,0,0
6,0,0,0,0,0,494,54,0,0,0
7,0,0,0,0,3,495,56,0,0,0
8,0,0,0,0,0,488,54,0,0,0
9,0,0,0,0,0,484,56,0,0,0
10,0,0,0,0,1,473,54,0,0,0
11,0,0,0,0,3,475,56,0,0,0
12,0,0,0,0,0,468,57,0,0,0
13,0,0,0,0,0,468,54,0,0,0
14,0,0,0,0,0,467,56,0,0,0
15,0,0,0,0,3,474,56,0,0,0
0,0,0,0,0,0,474,55,0,0,0
1,0,0,0,0,0,482,56,0,0,0
2,0,0,0,0,0,489,56,0,0,0
3,0,0,0,0,3,504,55,0,0,0
4,0,0,0,0,0,508,54,0,0,0
5,0,0,0,0,0,515,54,0,0,0
6,0,0,0,0,0,512,54,0,0,0
7,0,0,0,0,3,515,56,0,0,0
8,0,0,0,0,0,519,56,0,0,0
9,0,0,0,0,0,522,56,0,0,0
10,0,0,0,0,0,518,56,0,0,0
11,0,0,0,0,1,526,56,0,0,0
12,0,0,0,0,0,525,55,0,0,0
13,0,0,0,0,0,524,54,0,0,0
14,0,0,0,0,0,517,56,0,0,0
15,0,0,0,0,3,516,56,0,0,0
0,0,0,0,0,0,511,55,0,0,0
1,0,0,0,0,0,509,56,0,0,0
2,0,0,0,0,1,501,56,0,0,0
3,0,0,0,0,3,506,55,0,0,0
4,0,0,0,0,0,505,54,0,0,0
5,0,0,0,0,0,507,54,0,0,0
6,0,0,0,0,0,508,56,0,0,0
7,0,0,0,0,3,508,56,0,0,0
8,0,0,0,0,1,495,56,0,0,0
9,0,0,0,0,0,496,56,0,0,0
10,0,0,0,0,0,492,57,0,0,0
11,0,0,0,0,3,498,56,0,0,0
12,0,0,0,0,0,502,56,0,0,0
13,0,0,0,0,0,510,54,0,0,0
14,0,0,0,0,0,510,54,0,0,0
15,0,0,0,0,3,512,54,0,0,0
0,0,0,0,0,0,507,56,0,0,0
1,0,0,0,0,0,505,56,0,0,0
2,0,0,0,0,0,500,56,0,0,0
3,0,0,0,0,3,504,56,0,0,0
4,0,0,0,0,1,500,54,0,0,0
5,0,0,0,0,0,504,56,0,0,0
6,0,0,0,0,0,508,56,0,0,0
7,0,0,0,0,3,509,55,0,0,0
8,0,0,0,0,0,503,54,0,0,0
9,0,0,0,0,0,507,56,0,0,0
10,0,0,0,0,0,513,56,0,0,0
11,0,0,0,0,3,524,54,0,0,0
12,0,0,0,0,0,527,55,0,0,0
13,0,0,0,0,0,537,56,0,0,0
14,0,0,0,0,0,536,57,0,0,0
15,0,0,0,0,3,552,56,0,0,0
0,0,0,0,0,1,556,56,0,0,0
1,0,0,0,0,0,557,54,0,0,0
2,0,0,0,0,0,548,55,0,0,0
3,0,0,0,0,3,544,56,0,0,0
4,0,0,0,0,0,543,56,0,0,0
5,0,0,0,0,0,542,56,0,0,0
6,0,0,0,0,1,538,55,0,0,0
7,0,0,0,0,0,540,55,0,0,0
8,0,0,0,0,0,547,56,0,0,0
9,0,0,0,0,0,559,56,0,0,0
10,0,0,0,0,0,560,56,0,0,0
11,0,0,0,0,3,562,55,0,0,0
12,0,0,0,0,0,554,55,0,0,0
13,0,0,0,0,0,554,56,0,0,0
14,0,0,0,0,0,550,56,0,0,0
15,0,0,0,0,3,554,56,0,0,0
0,0,0,0,0,0,558,55,0,0,0
1,0,0,0,0,0,539,54,0,0,0
2,0,0,0,0,1,468,56,0,0,0
3,0,0,0,0,3,479,56,0,0,0
4,0,0,0,0,0,560,55,0,0,0
5,0,0,0,0,0,584,54,0,0,0
6,0,0,0,0,0,529,55,0,0,0
7,0,0,0,0,3,543,56,0,0,0
8,0,0,0,0,0,537,56,0,0,0
9,0,0,0,0,0,538,56,0,0,0
10,0,0,0,0,0,530,56,0,0,0
11,0,0,0,0,3,529,56,0,0,0
12,0,0,0,0,0,531,55,0,0,0
13,0,0,0,0,0,532,54,0,0,0
14,0,0,0,0,1,526,55,0,0,0
15,0,0,0,0,3,531,56,0,0,0
0,0,0,0,0,0,526,54,0,0,0
1,0,0,0,0,0,526,56,0,0,0
2,0,0,0,0,0,519,56,0,0,0
3,0,0,0,0,3,515,55,0,0,0
4,0,0,0,0,1,510,56,0,0,0
5,0,0,0,0,0,509,56,0,0,0
6,0,0,0,0,0,501,55,0,0,0
7,0,0,0,0,3,498,56,0,0,0
8,0,0,0,0,0,487,56,0,0,0
9,0,0,0,0,0,484,55,0,0,0
10,0,0,0,0,0,480,56,0,0,0
11,0,0,0,0,3,482,55,0,0,0
12,0,0,0,0,0,492,55,0,0,0
13,0,0,0,0,0,509,57,0,0,0
14,0,0,0,0,0,519,55,0,0,0
15,0,0,0,0,3,533,56,0,0,0
0,0,0,0,0,1,536,56,0,0,0
1,0,0,0,0,0,543,55,0,0,0
2,0,0,0,0,0,539,54,0,0,0
3,0,0,0,0,1,544,56,0,0,0
4,0,0,0,0,0,541,53,0,0,0
5,0,0,0,0,0,539,56,0,0,0
6,0,0,0,0,0,528,54,0,0,0
7,0,0,0,0,3,530,56,0,0,0
8,0,0,0,0,0,519,56,0,0,0
9,0,0,0,0,0,524,55,0,0,0
10,0,0,0,0,0,522,56,0,0,0
11,0,0,0,0,3,525,56,0,0,0
12,0,0,0,0,1,524,54,0,0,0
13,0,0,0,0,0,528,56,0,0,0
14,0,0,0,0,0,523,54,0,0,0
15,0,0,0,0,3,525,56,0,0,0
0,0,0,0,0,0,518,56,0,0,0
1,0,0,0,0,0,518,54,0,0,0
2,0,0,0,0,1,513,56,0,0,0
3,0,0,0,0,3,516,55,0,0,0
4,0,0,0,0,0,514,56,0,0,0
5,0,0,0,0,0,520,54,0,0,0
6,0,0,0,0,0,517,56,0,0,0
7,0,0,0,0,3,519,56,0,0,0
8,0,0,0,0,0,514,56,0,0,0
9,0,0,0,0,0,514,56,0,0,0
10,0,0,0,0,0,508,54,0,0,0
11,0,0,0,0,3,504,56,0,0,0
12,0,0,0,0,0,500,56,0,0,0
13,0,0,0,0,0,503,54,0,0,0
14,0,0,0,0,1,501,56,0,0,0
15,0,0,0,0,3,504,56,0,0,0
0,0,0,0,0,0,499,54,0,0,0
1,0,0,0,0,0,502,56,0,0,0
2,0,0,0,0,0,502,54,0,0,0
3,0,0,0,0,3,508,56,0,0,0
4,0,0,0,0,0,507,56,0,0,0
5,0,0,0,0,0,512,54,0,0,0
6,0,0,0,0,0,504,56,0,0,0
7,0,0,0,0,3,501,56,0,0,0
8,0,0,0,0,0,502,54,0,0,0
9,0,0,0,0,0,507,56,0,0,0
10,0,0,0,0,1,497,55,0,0,0
11,0,0,0,0,3,495,54,0,0,0
12,0,0,0,0,0,486,55,0,0,0
13,0,0,0,0,0,488,55,0,0,0
14,0,0,0,0,0,485,56,0,0,0
15,0,0,0,0,1,487,54,0,0,0
0,0,0,0,0,1,479,56,0,0,0
1,0,0,0,0,0,475,54,0,0,0
2,0,0,0,0,0,467,56,0,0,0
3,0,0,0,0,3,467,54,0,0,0
4,0,0,0,0,0,457,54,0,0,0
5,0,0,0,0,0,464,55,0,0,0
6,0,0,0,0,0,467,56,0,0,0
7,0,0,0,0,3,482,54,0,0,0
8,0,0,0,0,0,492,55,0,0,0
9,0,0,0,0,0,510,56,0,0,0
10,0,0,0,0,0,511,56,0,0,0
11,0,0,0,0,3,520,54,0,0,0
12,0,0,0,0,1,518,56,0,0,0
13,0,0,0,0,0,524,55,0,0,0
14,0,0,0,0,0,524,56,0,0,0
15,0,0,0,0,3,536,56,0,0,0
0,0,0,0,0,0,521,53,0,0,0
1,0,0,0,0,0,464,56,0,0,0
2,0,0,0,0,0,462,54,0,0,0
3,0,0,0,0,3,541,56,0,0,0
4,0,0,0,0,0,570,56,0,0,0
5,0,0,0,0,0,513,56,0,0,0
6,0,0,0,0,0,516,54,0,0,0
7,0,0,0,0,3,525,56,0,0,0
8,0,0,0,0,1,530,56,0,0,0
9,0,0,0,0,0,543,53,0,0,0
10,0,0,0,0,0,547,56,0,0,0
11,0,0,0,0,3,551,56,0,0,0
12,0,0,0,0,0,549,56,0,0,0
13,0,0,0,0,0,551,56,0,0,0
14,0,0,0,0,1,544,56,0,0,0
15,0,0,0,0,3,546,53,0,0,0
0,0,0,0,0,0,540,56,0,0,0
1,0,0,0,0,0,544,54,0,0,0
2,0,0,0,0,0,537,56,0,0,0
3,0,0,0,0,3,534,56,0,0,0
4,0,0,0,0,1,526,55,0,0,0
5,0,0,0,0,0,524,56,0,0,0
6,0,0,0,0,0,511,54,0,0,0
7,0,0,0,0,3,507,54,0,0,0
8,0,0,0,0,0,493,56,0,0,0
9,0,0,0,0,0,486,55,0,0,0
10,0,0,0,0,1,481,53,0,0,0
11,0,0,0,0,0,491,55,0,0,0
12,0,0,0,0,0,492,56,0,0,0
13,0,0,0,0,0,500,55,0,0,0
14,0,0,0,0,0,504,54,0,0,0
15,0,0,0,0,3,513,56,0,0,0
0,0,0,0,0,0,510,54,0,0,0
1,0,0,0,0,0,515,54,0,0,0
2,0,0,0,0,0,511,56,0,0,0
3,0,0,0,0,3,516,55,0,0,0
4,0,0,0,0,0,507,54,0,0,0
5,0,0,0,0,0,509,54,0,0,0
6,0,0,0,0,0,507,55,0,0,0
7,0,0,0,0,3,506,55,0,0,0
8,0,0,0,0,0,511,56,0,0,0
9,0,0,0,0,0,520,56,0,0,0
10,0,0,0,0,0,522,56,0,0,0
11,0,0,0,0,3,526,54,0,0,0
12,0,0,0,0,1,525,54,0,0,0
13,0,0,0,0,0,530,54,0,0,0
14,0,0,0,0,0,526,53,0,0,0
15,0,0,0,0,1,527,53,0,0,0
0,0,0,0,0,0,524,56,0,0,0
1,0,0,0,0,0,525,56,0,0,0
2,0,0,0,0,0,525,56,0,0,0
3,0,0,0,0,3,528,55,0,0,0
4,0,0,0,0,0,524,55,0,0,0
5,0,0,0,0,0,527,55,0,0,0
6,0,0,0,0,0,524,53,0,0,0
7,0,0,0,0,3,525,53,0,0,0
8,0,0,0,0,1,518,54,0,0,0
9,0,0,0,0,0,517,55,0,0,0
10,0,0,0,0,0,508,54,0,0,0
11,0,0,0,0,3,503,54,0,0,0
12,0,0,0,0,0,494,55,0,0,0
13,0,0,0,0,0,499,56,0,0,0
14,0,0,0,0,0,496,55,0,0,0
15,0,0,0,0,3,499,54,0,0,0
0,0,0,0,0,0,501,53,0,0,0
1,0,0,0,0,0,504,54,0,0,0
2,0,0,0,0,0,501,55,0,0,0
3,0,0,0,0,3,509,56,0,0,0
4,0,0,0,0,1,508,56,0,0,0
5,0,0,0,0,0,512,55,0,0,0
6,0,0,0,0,0,500,53,0,0,0
7,0,0,0,0,3,503,54,0,0,0
8,0,0,0,0,0,499,55,0,0,0
9,0,0,0,0,0,505,55,0,0,0
10,0,0,0,0,1,505,56,0,0,0
11,0,0,0,0,3,508,56,0,0,0
12,0,0,0,0,0,509,56,0,0,0
13,0,0,0,0,0,516,55,0,0,0
14,0,0,0,0,0,508,56,0,0,0
15,0,0,0,0,3,514,56,0,0,0
0,0,0,0,0,0,514,54,0,0,0
1,0,0,0,0,0,523,53,0,0,0
2,0,0,0,0,0,524,55,0,0,0
3,0,0,0,0,3,530,56,0,0,0
4,0,0,0,0,0,536,56,0,0,0
5,0,0,0,0,0,551,56,0,0,0
6,0,0,0,0,1,551,55,0,0,0
7,0,0,0,0,3,550,54,0,0,0
8,0,0,0,0,0,543,54,0,0,0
9,0,0,0,0,0,541,56,0,0,0
10,0,0,0,0,0,532,56,0,0,0
11,0,0,0,0,1,536,56,0,0,0
12,0,0,0,0,0,530,55,0,0,0
