0,1,2,3,4,5,6,7,8,9,10
11,0,0,0,0,3,535,52,0,0,0
12,0,0,0,0,0,531,50,0,0,0
13,0,0,0,0,0,528,52,0,0,0
14,0,0,0,0,0,519,52,0,0,0
15,0,0,0,0,3,516,52,0,0,0
0,0,0,0,0,0,507,49,0,0,0
1,0,0,0,0,0,509,52,0,0,0
2,0,0,0,0,0,503,51,0,0,0
3,0,0,0,0,3,498,49,0,0,0
4,0,0,0,0,0,491,49,0,0,0
5,0,0,0,0,0,496,50,0,0,0
6,0,0,0,0,0,489,52,0,0,0
7,0,0,0,0,3,491,52,0,0,0
8,0,0,0,0,0,492,51,0,0,0
9,0,0,0,0,0,501,49,0,0,0
10,0,0,0,0,0,497,51,0,0,0
11,0,0,0,0,3,495,52,0,0,0
12,0,0,0,0,0,488,51,0,0,0
13,0,0,0,0,0,491,50,0,0,0
14,0,0,0,0,0,485,51,0,0,0
15,0,0,0,0,3,491,52,0,0,0
0,0,0,0,0,0,484,50,0,0,0
1,0,0,0,0,0,487,50,0,0,0
2,0,0,0,0,0,480,51,0,0,0
3,0,0,0,0,3,482,52,0,0,0
4,0,0,0,0,0,480,52,0,0,0
5,0,0,0,0,0,484,51,0,0,0
6,0,0,0,0,0,487,52,0,0,0
7,0,0,0,0,3,497,52,0,0,0
8,0,0,0,0,0,499,50,0,0,0
9,0,0,0,0,0,503,49,0,0,0
10,0,0,0,0,0,496,51,0,0,0
11,0,0,0,0,0,498,52,0,0,0
12,0,0,0,0,0,492,52,0,0,0
13,0,0,0,0,0,492,52,0,0,0
14,0,0,0,0,0,487,50,0,0,0
15,0,0,0,0,3,486,50,0,0,0
0,0,0,0,0,0,483,50,0,0,0
1,0,0,0,0,0,489,50,0,0,0
2,0,0,0,0,0,492,52,0,0,0
3,0,0,0,0,3,512,52,0,0,0
4,0,0,0,0,0,519,50,0,0,0
5,0,0,0,0,0,526,50,0,0,0
6,0,0,0,0,0,525,51,0,0,0
7,0,0,0,0,3,532,49,0,0,0
8,0,0,0,0,0,530,51,0,0,0
9,0,0,0,0,0,535,51,0,0,0
10,0,0,0,0,0,535,52,0,0,0
11,0,0,0,0,3,538,53,0,0,0
12,0,0,0,0,0,485,52,0,0,0
13,0,0,0,0,0,440,52,0,0,0
14,0,0,0,0,0,474,50,0,0,0
15,0,0,0,0,3,574,51,0,0,0
0,0,0,0,0,0,524,52,0,0,0
1,0,0,0,0,0,510,52,0,0,0
2,0,0,0,0,0,520,52,0,0,0
3,0,0,0,0,3,522,51,0,0,0
4,0,0,0,0,0,512,51,0,0,0
5,0,0,0,0,0,509,52,0,0,0
6,0,0,0,0,0,507,52,0,0,0
7,0,0,0,0,3,520,52,0,0,0
8,0,0,0,0,0,519,52,0,0,0
9,0,0,0,0,0,520,52,0,0,0
10,0,0,0,0,0,517,52,0,0,0
11,0,0,0,0,3,515,53,0,0,0
12,0,0,0,0,0,505,52,0,0,0
13,0,0,0,0,0,508,52,0,0,0
14,0,0,0,0,0,498,53,0,0,0
15,0,0,0,0,3,499,52,0,0,0
0,0,0,0,0,0,504,50,0,0,0
1,0,0,0,0,0,515,50,0,0,0
2,0,0,0,0,0,511,52,0,0,0
3,0,0,0,0,3,513,52,0,0,0
4,0,0,0,0,0,507,51,0,0,0
5,0,0,0,0,0,510,51,0,0,0
6,0,0,0,0,0,506,51,0,0,0
7,0,0,0,0,1,519,50,0,0,0
8,0,0,0,0,0,526,50,0,0,0
9,0,0,0,0,0,540,50,0,0,0
10,0,0,0,0,0,539,50,0,0,0
11,0,0,0,0,3,550,51,0,0,0
12,0,0,0,0,0,546,52,0,0,0
13,0,0,0,0,0,545,52,0,0,0
14,0,0,0,0,0,531,52,0,0,0
15,0,0,0,0,3,529,52,0,0,0
0,0,0,0,0,0,527,52,0,0,0
1,0,0,0,0,0,526,52,0,0,0
2,0,0,0,0,0,519,52,0,0,0
3,0,0,0,0,3,521,50,0,0,0
4,0,0,0,0,0,515,50,0,0,0
5,0,0,0,0,0,505,51,0,0,0
6,0,0,0,0,0,494,53,0,0,0
7,0,0,0,0,3,499,52,0,0,0
8,0,0,0,0,0,495,52,0,0,0
9,0,0,0,0,0,501,51,0,0,0
10,0,0,0,0,0,494,52,0,0,0
11,0,0,0,0,3,504,50,0,0,0
12,0,0,0,0,0,494,52,0,0,0
13,0,0,0,0,0,501,52,0,0,0
14,0,0,0,0,0,503,51,0,0,0
15,0,0,0,0,3,510,52,0,0,0
0,0,0,0,0,0,507,52,0,0,0
1,0,0,0,0,0,514,51,0,0,0
2,0,0,0,0,0,514,50,0,0,0
3,0,0,0,0,3,524,51,0,0,0
4,0,0,0,0,0,522,52,0,0,0
5,0,0,0,0,0,525,50,0,0,0
6,0,0,0,0,0,518,52,0,0,0
7,0,0,0,0,3,521,51,0,0,0
8,0,0,0,0,0,516,49,0,0,0
9,0,0,0,0,0,520,52,0,0,0
10,0,0,0,0,0,515,51,0,0,0
11,0,0,0,0,3,517,51,0,0,0
12,0,0,0,0,0,510,49,0,0,0
13,0,0,0,0,0,510,52,0,0,0
14,0,0,0,0,0,504,52,0,0,0
15,0,0,0,0,3,504,52,0,0,0
0,0,0,0,0,0,494,51,0,0,0
1,0,0,0,0,0,495,50,0,0,0
2,0,0,0,0,0,488,50,0,0,0
3,0,0,0,0,1,492,49,0,0,0
4,0,0,0,0,0,487,50,0,0,0
5,0,0,0,0,0,487,49,0,0,0
6,0,0,0,0,0,487,51,0,0,0
7,0,0,0,0,3,497,51,0,0,0
8,0,0,0,0,0,504,51,0,0,0
9,0,0,0,0,0,522,52,0,0,0
10,0,0,0,0,0,526,52,0,0,0
11,0,0,0,0,3,527,52,0,0,0
12,0,0,0,0,0,519,52,0,0,0
13,0,0,0,0,0,521,51,0,0,0
14,0,0,0,0,0,521,49,0,0,0
15,0,0,0,0,3,526,50,0,0,0
0,0,0,0,0,0,527,50,0,0,0
1,0,0,0,0,0,520,49,0,0,0
2,0,0,0,0,0,465,50,0,0,0
3,0,0,0,0,3,430,50,0,0,0
4,0,0,0,0,0,492,51,0,0,0
5,0,0,0,0,0,587,52,0,0,0
6,0,0,0,0,0,515,51,0,0,0
7,0,0,0,0,3,505,51,0,0,0
8,0,0,0,0,0,510,49,0,0,0
9,0,0,0,0,0,514,50,0,0,0
10,0,0,0,0,0,511,50,0,0,0
11,0,0,0,0,3,515,50,0,0,0
12,0,0,0,0,0,511,51,0,0,0
13,0,0,0,0,0,508,51,0,0,0
14,0,0,0,0,0,505,50,0,0,0
15,0,0,0,0,3,510,51,0,0,0
0,0,0,0,0,0,508,50,0,0,0
1,0,0,0,0,0,509,50,0,0,0
2,0,0,0,0,0,502,52,0,0,0
3,0,0,0,0,3,508,52,0,0,0
4,0,0,0,0,0,504,52,0,0,0
5,0,0,0,0,0,510,52,0,0,0
6,0,0,0,0,0,508,52,0,0,0
7,0,0,0,0,3,510,50,0,0,0
8,0,0,0,0,0,502,49,0,0,0
9,0,0,0,0,0,499,50,0,0,0
10,0,0,0,0,0,496,50,0,0,0
11,0,0,0,0,3,497,49,0,0,0
12,0,0,0,0,0,495,49,0,0,0
13,0,0,0,0,0,508,49,0,0,0
14,0,0,0,0,0,518,49,0,0,0
15,0,0,0,0,1,531,52,0,0,0
0,0,0,0,0,0,532,51,0,0,0
1,0,0,0,0,0,543,51,0,0,0
2,0,0,0,0,0,540,52,0,0,0
3,0,0,0,0,3,541,52,0,0,0
4,0,0,0,0,0,536,52,0,0,0
5,0,0,0,0,0,540,52,0,0,0
6,0,0,0,0,0,527,51,0,0,0
7,0,0,0,0,3,525,50,0,0,0
8,0,0,0,0,0,518,49,0,0,0
9,0,0,0,0,0,518,50,0,0,0
10,0,0,0,0,0,513,51,0,0,0
11,0,0,0,0,3,524,51,0,0,0
12,0,0,0,0,0,520,51,0,0,0
13,0,0,0,0,0,519,52,0,0,0
14,0,0,0,0,0,510,52,0,0,0
15,0,0,0,0,3,513,52,0,0,0
0,0,0,0,0,0,498,50,0,0,0
1,0,0,0,0,0,494,51,0,0,0
2,0,0,0,0,0,477,52,0,0,0
3,0,0,0,0,1,472,52,0,0,0
4,0,0,0,0,0,463,50,0,0,0
5,0,0,0,0,0,464,52,0,0,0
6,0,0,0,0,0,463,50,0,0,0
7,0,0,0,0,3,480,52,0,0,0
8,0,0,0,0,0,482,52,0,0,0
9,0,0,0,0,0,489,51,0,0,0
10,0,0,0,0,0,496,50,0,0,0
11,0,0,0,0,3,503,50,0,0,0
12,0,0,0,0,0,508,51,0,0,0
13,0,0,0,0,0,516,51,0,0,0
14,0,0,0,0,0,515,52,0,0,0
15,0,0,0,0,3,517,52,0,0,0
0,0,0,0,0,0,515,52,0,0,0
1,0,0,0,0,0,515,51,0,0,0
2,0,0,0,0,0,514,50,0,0,0
3,0,0,0,0,3,523,50,0,0,0
4,0,0,0,0,0,527,51,0,0,0
5,0,0,0,0,0,535,52,0,0,0
6,0,0,0,0,0,524,49,0,0,0
7,0,0,0,0,3,524,52,0,0,0
8,0,0,0,0,0,519,51,0,0,0
9,0,0,0,0,0,516,49,0,0,0
10,0,0,0,0,0,520,52,0,0,0
11,0,0,0,0,3,528,52,0,0,0
12,0,0,0,0,0,523,51,0,0,0
13,0,0,0,0,0,535,49,0,0,0
14,0,0,0,0,0,535,51,0,0,0
15,0,0,0,0,3,542,51,0,0,0
0,0,0,0,0,0,532,49,0,0,0
1,0,0,0,0,0,535,52,0,0,0
2,0,0,0,0,0,528,52,0,0,0
3,0,0,0,0,3,529,51,0,0,0
4,0,0,0,0,0,523,49,0,0,0
5,0,0,0,0,0,524,52,0,0,0
6,0,0,0,0,0,492,52,0,0,0
7,0,0,0,0,3,443,52,0,0,0
8,0,0,0,0,0,468,50,0,0,0
9,0,0,0,0,0,560,52,0,0,0
10,0,0,0,0,0,547,52,0,0,0
11,0,0,0,0,3,505,53,0,0,0
12,0,0,0,0,0,515,51,0,0,0
13,0,0,0,0,0,521,51,0,0,0
14,0,0,0,0,0,517,50,0,0,0
15,0,0,0,0,1,517,50,0,0,0
0,0,0,0,0,0,506,51,0,0,0
1,0,0,0,0,0,509,52,0,0,0
2,0,0,0,0,0,504,52,0,0,0
3,0,0,0,0,3,508,52,0,0,0
4,0,0,0,0,0,500,49,0,0,0
5,0,0,0,0,0,498,52,0,0,0
6,0,0,0,0,0,492,51,0,0,0
7,0,0,0,0,3,499,50,0,0,0
8,0,0,0,0,0,499,52,0,0,0
9,0,0,0,0,0,502,52,0,0,0
10,0,0,0,0,0,498,52,0,0,0
11,0,0,0,0,3,495,51,0,0,0
12,0,0,0,0,0,487,51,0,0,0
13,0,0,0,0,0,484,52,0,0,0
14,0,0,0,0,0,479,50,0,0,0
15,0,0,0,0,3,487,52,0,0,0
0,0,0,0,0,0,495,50,0,0,0
1,0,0,0,0,0,511,52,0,0,0
2,0,0,0,0,0,521,50,0,0,0
3,0,0,0,0,3,536,52,0,0,0
4,0,0,0,0,0,539,49,0,0,0
5,0,0,0,0,0,542,53,0,0,0
6,0,0,0,0,0,535,51,0,0,0
7,0,0,0,0,3,536,52,0,0,0
8,0,0,0,0,0,538,52,0,0,0
9,0,0,0,0,0,542,51,0,0,0
10,0,0,0,0,0,536,49,0,0,0
11,0,0,0,0,3,534,51,0,0,0
12,0,0,0,0,0,529,52,0,0,0
13,0,0,0,0,0,531,52,0,0,0
14,0,0,0,0,0,525,52,0,0,0
15,0,0,0,0,3,520,50,0,0,0
0,0,0,0,0,0,512,51,0,0,0
1,0,0,0,0,0,519,52,0,0,0
2,0,0,0,0,0,520,52,0,0,0
3,0,0,0,0,3,519,52,0,0,0
4,0,0,0,0,0,511,51,0,0,0
5,0,0,0,0,0,515,50,0,0,0
6,0,0,0,0,0,507,51,0,0,0
7,0,0,0,0,3,507,52,0,0,0
8,0,0,0,0,0,502,53,0,0,0
9,0,0,0,0,0,504,52,0,0,0
10,0,0,0,0,0,496,52,0,0,0
11,0,0,0,0,1,501,50,0,0,0
12,0,0,0,0,0,495,50,0,0,0
13,0,0,0,0,0,498,51,0,0,0
14,0,0,0,0,0,496,51,0,0,0
15,0,0,0,0,3,498,51,0,0,0
0,0,0,0,0,0,497,52,0,0,0
1,0,0,0,0,0,499,50,0,0,0
2,0,0,0,0,0,497,50,0,0,0
3,0,0,0,0,3,497,50,0,0,0
4,0,0,0,0,0,494,51,0,0,0
5,0,0,0,0,0,500,52,0,0,0
6,0,0,0,0,0,499,51,0,0,0
7,0,0,0,0,3,499,52,0,0,0
8,0,0,0,0,0,493,52,0,0,0
9,0,0,0,0,0,495,52,0,0,0
10,0,0,0,0,0,492,52,0,0,0
11,0,0,0,0,3,496,52,0,0,0
12,0,0,0,0,0,488,52,0,0,0
13,0,0,0,0,0,498,52,0,0,0
14,0,0,0,0,0,499,53,0,0,0
15,0,0,0,0,3,512,52,0,0,0
0,0,0,0,0,0,519,52,0,0,0
1,0,0,0,0,0,534,52,0,0,0
2,0,0,0,0,0,530,50,0,0,0
3,0,0,0,0,3,533,50,0,0,0
4,0,0,0,0,0,527,51,0,0,0
5,0,0,0,0,0,527,52,0,0,0
6,0,0,0,0,0,520,52,0,0,0
7,0,0,0,0,3,526,52,0,0,0
8,0,0,0,0,0,516,51,0,0,0
9,0,0,0,0,0,483,50,0,0,0
10,0,0,0,0,0,434,50,0,0,0
11,0,0,0,0,3,478,51,0,0,0
12,0,0,0,0,0,565,52,0,0,0
13,0,0,0,0,0,528,52,0,0,0
14,0,0,0,0,0,499,52,0,0,0
15,0,0,0,0,3,515,53,0,0,0
0,0,0,0,0,0,511,51,0,0,0
1,0,0,0,0,0,511,51,0,0,0
2,0,0,0,0,0,508,50,0,0,0
3,0,0,0,0,3,510,50,0,0,0
4,0,0,0,0,0,503,50,0,0,0
5,0,0,0,0,0,508,50,0,0,0
6,0,0,0,0,0,506,50,0,0,0
7,0,0,0,0,1,513,52,0,0,0
8,0,0,0,0,0,508,53,0,0,0
9,0,0,0,0,0,510,51,0,0,0
10,0,0,0,0,0,507,50,0,0,0
11,0,0,0,0,3,511,50,0,0,0
12,0,0,0,0,0,508,51,0,0,0
13,0,0,0,0,0,512,52,0,0,0
14,0,0,0,0,0,501,51,0,0,0
15,0,0,0,0,3,499,51,0,0,0
0,0,0,0,0,0,492,52,0,0,0
1,0,0,0,0,0,495,51,0,0,0
2,0,0,0,0,0,491,51,0,0,0
3,0,0,0,0,3,499,52,0,0,0
4,0,0,0,0,0,504,52,0,0,0
5,0,0,0,0,0,519,49,0,0,0
6,0,0,0,0,0,524,53,0,0,0
7,0,0,0,0,3,534,50,0,0,0
8,0,0,0,0,0,533,52,0,0,0
9,0,0,0,0,0,536,52,0,0,0
10,0,0,0,0,0,533,51,0,0,0
11,0,0,0,0,3,533,52,0,0,0
12,0,0,0,0,0,526,52,0,0,0
13,0,0,0,0,0,521,50,0,0,0
14,0,0,0,0,0,517,52,0,0,0
15,0,0,0,0,3,521,52,0,0,0
0,0,0,0,0,0,519,51,0,0,0
1,0,0,0,0,0,521,50,0,0,0
2,0,0,0,0,0,515,53,0,0,0
3,0,0,0,0,3,520,51,0,0,0
4,0,0,0,0,0,516,50,0,0,0
5,0,0,0,0,0,516,51,0,0,0
6,0,0,0,0,0,516,52,0,0,0
7,0,0,0,0,3,519,52,0,0,0
8,0,0,0,0,0,515,50,0,0,0
9,0,0,0,0,0,520,51,0,0,0
10,0,0,0,0,0,519,52,0,0,0
11,0,0,0,0,3,519,53,0,0,0
12,0,0,0,0,0,514,52,0,0,0
13,0,0,0,0,0,515,52,0,0,0
14,0,0,0,0,0,510,50,0,0,0
15,0,0,0,0,3,513,50,0,0,0
0,0,0,0,0,0,504,52,0,0,0
1,0,0,0,0,0,509,52,0,0,0
2,0,0,0,0,0,509,51,0,0,0
3,0,0,0,0,1,516,50,0,0,0
4,0,0,0,0,0,514,51,0,0,0
5,0,0,0,0,0,523,52,0,0,0
6,0,0,0,0,0,518,52,0,0,0
7,0,0,0,0,3,522,51,0,0,0
8,0,0,0,0,0,518,50,0,0,0
9,0,0,0,0,0,519,52,0,0,0
10,0,0,0,0,0,512,51,0,0,0
11,0,0,0,0,3,506,52,0,0,0
12,0,0,0,0,0,494,50,0,0,0
13,0,0,0,0,0,492,52,0,0,0
14,0,0,0,0,0,486,52,0,0,0
15,0,0,0,0,3,490,50,0,0,0
0,0,0,0,0,0,492,52,0,0,0
1,0,0,0,0,0,496,50,0,0,0
2,0,0,0,0,0,496,52,0,0,0
3,0,0,0,0,3,488,50,0,0,0
4,0,0,0,0,0,478,52,0,0,0
5,0,0,0,0,0,479,50,0,0,0
6,0,0,0,0,0,471,52,0,0,0
7,0,0,0,0,3,477,50,0,0,0
8,0,0,0,0,0,472,52,0,0,0
9,0,0,0,0,0,471,52,0,0,0
10,0,0,0,0,0,481,50,0,0,0
11,0,0,0,0,3,494,53,0,0,0
12,0,0,0,0,0,493,50,0,0,0
13,0,0,0,0,0,497,52,0,0,0
14,0,0,0,0,0,491,50,0,0,0
15,0,0,0,0,3,496,52,0,0,0
0,0,0,0,0,0,492,50,0,0,0
1,0,0,0,0,0,496,50,0,0,0
2,0,0,0,0,0,497,50,0,0,0
3,0,0,0,0,3,477,52,0,0,0
4,0,0,0,0,0,411,51,0,0,0
5,0,0,0,0,0,430,50,0,0,0
6,0,0,0,0,0,511,52,0,0,0
7,0,0,0,0,3,528,51,0,0,0
8,0,0,0,0,0,484,50,0,0,0
9,0,0,0,0,0,505,52,0,0,0
10,0,0,0,0,0,514,51,0,0,0
11,0,0,0,0,3,518,50,0,0,0
12,0,0,0,0,0,515,50,0,0,0
13,0,0,0,0,0,515,51,0,0,0
14,0,0,0,0,0,512,52,0,0,0
15,0,0,0,0,0,511,52,0,0,0
0,0,0,0,0,0,501,52,0,0,0
1,0,0,0,0,0,500,52,0,0,0
2,0,0,0,0,0,495,50,0,0,0
3,0,0,0,0,3,501,52,0,0,0
4,0,0,0,0,0,499,51,0,0,0
5,0,0,0,0,0,502,50,0,0,0
6,0,0,0,0,0,497,51,0,0,0
7,0,0,0,0,3,500,50,0,0,0
8,0,0,0,0,0,492,50,0,0,0
9,0,0,0,0,0,496,52,0,0,0
10,0,0,0,0,0,491,52,0,0,0
11,0,0,0,0,3,496,52,0,0,0
12,0,0,0,0,0,495,50,0,0,0
13,0,0,0,0,0,501,52,0,0,0
14,0,0,0,0,0,506,52,0,0,0
15,0,0,0,0,3,522,50,0,0,0
0,0,0,0,0,0,529,51,0,0,0
1,0,0,0,0,0,545,52,0,0,0
2,0,0,0,0,0,551,50,0,0,0
3,0,0,0,0,3,560,51,0,0,0
4,0,0,0,0,0,555,52,0,0,0
5,0,0,0,0,0,558,52,0,0,0
6,0,0,0,0,0,551,50,0,0,0
7,0,0,0,0,3,551,52,0,0,0
8,0,0,0,0,0,540,53,0,0,0
9,0,0,0,0,0,541,50,0,0,0
10,0,0,0,0,0,537,52,0,0,0
11,0,0,0,0,3,539,53,0,0,0
12,0,0,0,0,0,527,52,0,0,0
13,0,0,0,0,0,529,51,0,0,0
14,0,0,0,0,0,519,52,0,0,0
15,0,0,0,0,3,521,52,0,0,0
0,0,0,0,0,0,516,52,0,0,0
1,0,0,0,0,0,519,51,0,0,0
2,0,0,0,0,0,510,50,0,0,0
3,0,0,0,0,3,513,51,0,0,0
4,0,0,0,0,0,509,52,0,0,0
5,0,0,0,0,0,514,51,0,0,0
6,0,0,0,0,0,507,50,0,0,0
7,0,0,0,0,3,512,52,0,0,0
8,0,0,0,0,0,505,50,0,0,0
9,0,0,0,0,0,507,52,0,0,0
10,0,0,0,0,0,499,50,0,0,0
11,0,0,0,0,0,497,52,0,0,0
12,0,0,0,0,0,496,52,0,0,0
13,0,0,0,0,0,504,50,0,0,0
14,0,0,0,0,0,499,52,0,0,0
15,0,0,0,0,3,502,51,0,0,0
0,0,0,0,0,0,493,50,0,0,0
1,0,0,0,0,0,489,52,0,0,0
2,0,0,0,0,0,481,50,0,0,0
3,0,0,0,0,3,489,52,0,0,0
4,0,0,0,0,0,487,50,0,0,0
5,0,0,0,0,0,492,52,0,0,0
6,0,0,0,0,0,488,52,0,0,0
7,0,0,0,0,3,493,51,0,0,0
8,0,0,0,0,0,491,52,0,0,0
9,0,0,0,0,0,495,50,0,0,0
10,0,0,0,0,0,491,52,0,0,0
11,0,0,0,0,3,500,51,0,0,0
12,0,0,0,0,0,500,51,0,0,0
13,0,0,0,0,0,507,52,0,0,0
14,0,0,0,0,0,507,50,0,0,0
15,0,0,0,0,0,513,53,0,0,0
0,0,0,0,0,0,515,51,0,0,0
1,0,0,0,0,0,523,50,0,0,0
2,0,0,0,0,0,521,51,0,0,0
3,0,0,0,0,3,519,52,0,0,0
4,0,0,0,0,0,515,49,0,0,0
5,0,0,0,0,0,523,51,0,0,0
6,0,0,0,0,0,523,52,0,0,0
7,0,0,0,0,3,522,53,0,0,0
8,0,0,0,0,0,515,50,0,0,0
9,0,0,0,0,0,512,52,0,0,0
10,0,0,0,0,0,498,52,0,0,0
11,0,0,0,0,3,494,50,0,0,0
12,0,0,0,0,0,490,52,0,0,0
13,0,0,0,0,0,497,50,0,0,0
14,0,0,0,0,0,510,52,0,0,0
15,0,0,0,0,3,526,51,0,0,0
0,0,0,0,0,0,523,52,0,0,0
1,0,0,0,0,0,526,50,0,0,0
2,0,0,0,0,0,524,52,0,0,0
3,0,0,0,0,3,531,52,0,0,0
4,0,0,0,0,0,536,51,0,0,0
5,0,0,0,0,0,548,50,0,0,0
6,0,0,0,0,0,551,50,0,0,0
7,0,0,0,0,3,528,53,0,0,0
8,0,0,0,0,0,462,52,0,0,0
9,0,0,0,0,0,483,50,0,0,0
10,0,0,0,0,0,570,51,0,0,0
11,0,0,0,0,3,586,49,0,0,0
12,0,0,0,0,0,531,52,0,0,0
13,0,0,0,0,0,546,52,0,0,0
14,0,0,0,0,0,549,50,0,0,0
15,0,0,0,0,3,552,51,0,0,0
0,0,0,0,0,0,549,52,0,0,0
1,0,0,0,0,0,552,50,0,0,0
2,0,0,0,0,0,541,52,0,0,0
3,0,0,0,0,3,543,49,0,0,0
4,0,0,0,0,0,536,52,0,0,0
5,0,0,0,0,0,539,50,0,0,0
6,0,0,0,0,0,535,52,0,0,0
7,0,0,0,0,3,533,52,0,0,0
8,0,0,0,0,0,529,50,0,0,0
9,0,0,0,0,0,532,49,0,0,0
10,0,0,0,0,0,526,51,0,0,0
11,0,0,0,0,1,525,51,0,0,0
12,0,0,0,0,0,516,52,0,0,0
13,0,0,0,0,0,518,51,0,0,0
14,0,0,0,0,0,516,50,0,0,0
15,0,0,0,0,3,519,52,0,0,0
0,0,0,0,0,0,515,49,0,0,0
1,0,0,0,0,0,517,52,0,0,0
2,0,0,0,0,0,516,52,0,0,0
3,0,0,0,0,3,527,51,0,0,0
4,0,0,0,0,0,529,52,0,0,0
5,0,0,0,0,0,542,49,0,0,0
6,0,0,0,0,0,542,52,0,0,0
7,0,0,0,0,3,551,51,0,0,0
8,0,0,0,0,0,542,49,0,0,0
9,0,0,0,0,0,545,52,0,0,0
10,0,0,0,0,0,539,50,0,0,0
11,0,0,0,0,3,541,52,0,0,0
12,0,0,0,0,0,538,50,0,0,0
13,0,0,0,0,0,537,52,0,0,0
14,0,0,0,0,0,530,50,0,0,0
15,0,0,0,0,3,531,52,0,0,0
0,0,0,0,0,0,529,52,0,0,0
1,0,0,0,0,0,530,50,0,0,0
2,0,0,0,0,0,522,52,0,0,0
3,0,0,0,0,3,523,52,0,0,0
4,0,0,0,0,0,517,49,0,0,0
5,0,0,0,0,0,522,53,0,0,0
6,0,0,0,0,0,514,51,0,0,0
7,0,0,0,0,3,515,52,0,0,0
8,0,0,0,0,0,507,49,0,0,0
9,0,0,0,0,0,509,52,0,0,0
10,0,0,0,0,0,505,51,0,0,0
11,0,0,0,0,3,513,51,0,0,0
12,0,0,0,0,0,514,52,0,0,0
13,0,0,0,0,0,519,50,0,0,0
14,0,0,0,0,0,515,53,0,0,0
15,0,0,0,0,3,518,51,0,0,0
0,0,0,0,0,0,515,51,0,0,0
1,0,0,0,0,0,514,52,0,0,0
2,0,0,0,0,0,507,50,0,0,0
3,0,0,0,0,3,509,52,0,0,0
4,0,0,0,0,0,501,51,0,0,0
5,0,0,0,0,0,504,51,0,0,0
6,0,0,0,0,0,503,50,0,0,0
7,0,0,0,0,1,509,52,0,0,0
8,0,0,0,0,0,508,51,0,0,0
9,0,0,0,0,0,511,50,0,0,0
10,0,0,0,0,0,505,52,0,0,0
11,0,0,0,0,3,505,50,0,0,0
12,0,0,0,0,0,500,52,0,0,0
13,0,0,0,0,0,502,51,0,0,0
14,0,0,0,0,0,503,50,0,0,0
15,0,0,0,0,3,508,52,0,0,0
0,0,0,0,0,0,506,52,0,0,0
1,0,0,0,0,0,511,51,0,0,0
2,0,0,0,0,0,506,50,0,0,0
3,0,0,0,0,3,514,51,0,0,0
4,0,0,0,0,0,508,52,0,0,0
5,0,0,0,0,0,513,50,0,0,0
6,0,0,0,0,0,509,52,0,0,0
7,0,0,0,0,3,515,49,0,0,0
8,0,0,0,0,0,514,51,0,0,0
9,0,0,0,0,0,513,53,0,0,0
10,0,0,0,0,0,507,52,0,0,0
11,0,0,0,0,3,501,51,0,0,0
12,0,0,0,0,0,493,49,0,0,0
13,0,0,0,0,0,491,52,0,0,0
14,0,0,0,0,0,486,52,0,0,0
15,0,0,0,0,3,497,50,0,0,0
0,0,0,0,0,0,494,52,0,0,0
1,0,0,0,0,0,507,50,0,0,0
2,0,0,0,0,0,507,52,0,0,0
3,0,0,0,0,3,511,51,0,0,0
4,0,0,0,0,0,507,52,0,0,0
5,0,0,0,0,0,512,52,0,0,0
6,0,0,0,0,0,510,52,0,0,0
7,0,0,0,0,3,512,52,0,0,0
8,0,0,0,0,0,505,50,0,0,0
9,0,0,0,0,0,506,50,0,0,0
10,0,0,0,0,0,487,51,0,0,0
11,0,0,0,0,3,426,52,0,0,0
12,0,0,0,0,0,418,50,0,0,0
13,0,0,0,0,0,487,51,0,0,0
14,0,0,0,0,0,561,52,0,0,0
15,0,0,0,0,3,503,50,0,0,0
0,0,0,0,0,0,495,52,0,0,0
1,0,0,0,0,0,509,53,0,0,0
2,0,0,0,0,0,503,52,0,0,0
3,0,0,0,0,1,507,51,0,0,0
4,0,0,0,0,0,504,50,0,0,0
5,0,0,0,0,0,508,52,0,0,0
6,0,0,0,0,0,504,52,0,0,0
7,0,0,0,0,3,509,50,0,0,0
8,0,0,0,0,0,504,50,0,0,0
9,0,0,0,0,0,507,52,0,0,0
10,0,0,0,0,0,505,53,0,0,0
11,0,0,0,0,3,508,51,0,0,0
12,0,0,0,0,0,508,51,0,0,0
13,0,0,0,0,0,510,49,0,0,0
14,0,0,0,0,0,503,52,0,0,0
15,0,0,0,0,3,504,51,0,0,0
0,0,0,0,0,0,496,52,0,0,0
1,0,0,0,0,0,496,51,0,0,0
2,0,0,0,0,0,489,50,0,0,0
3,0,0,0,0,3,492,49,0,0,0
4,0,0,0,0,0,493,51,0,0,0
5,0,0,0,0,0,500,52,0,0,0
6,0,0,0,0,0,509,50,0,0,0
7,0,0,0,0,3,529,52,0,0,0
8,0,0,0,0,0,537,51,0,0,0
9,0,0,0,0,0,546,51,0,0,0
10,0,0,0,0,0,542,52,0,0,0
11,0,0,0,0,3,540,51,0,0,0
12,0,0,0,0,0,533,51,0,0,0
13,0,0,0,0,0,531,52,0,0,0
14,0,0,0,0,0,523,52,0,0,0
15,0,0,0,0,3,522,51,0,0,0
0,0,0,0,0,0,519,50,0,0,0
1,0,0,0,0,0,517,52,0,0,0
2,0,0,0,0,0,510,51,0,0,0
3,0,0,0,0,3,508,49,0,0,0
4,0,0,0,0,0,503,52,0,0,0
5,0,0,0,0,0,502,52,0,0,0
6,0,0,0,0,0,493,50,0,0,0
7,0,0,0,0,3,493,52,0,0,0
8,0,0,0,0,0,491,50,0,0,0
9,0,0,0,0,0,494,52,0,0,0
10,0,0,0,0,0,491,52,0,0,0
11,0,0,0,0,3,492,50,0,0,0
12,0,0,0,0,0,487,51,0,0,0
13,0,0,0,0,0,494,52,0,0,0
14,0,0,0,0,0,498,52,0,0,0
15,0,0,0,0,0,508,51,0,0,0
0,0,0,0,0,0,509,50,0,0,0
1,0,0,0,0,0,509,52,0,0,0
2,0,0,0,0,0,508,52,0,0,0
3,0,0,0,0,3,512,52,0,0,0
4,0,0,0,0,0,506,52,0,0,0
5,0,0,0,0,0,510,52,0,0,0
6,0,0,0,0,0,505,52,0,0,0
7,0,0,0,0,3,508,52,0,0,0
8,0,0,0,0,0,505,51,0,0,0
9,0,0,0,0,0,512,50,0,0,0
10,0,0,0,0,0,514,52,0,0,0
11,0,0,0,0,3,519,53,0,0,0
12,0,0,0,0,0,516,52,0,0,0
13,0,0,0,0,0,516,50,0,0,0
14,0,0,0,0,0,510,52,0,0,0
15,0,0,0,0,3,516,52,0,0,0
0,0,0,0,0,0,513,50,0,0,0
1,0,0,0,0,0,519,51,0,0,0
2,0,0,0,0,0,519,52,0,0,0
3,0,0,0,0,3,523,50,0,0,0
4,0,0,0,0,0,519,51,0,0,0
5,0,0,0,0,0,518,53,0,0,0
6,0,0,0,0,0,511,50,0,0,0
7,0,0,0,0,3,509,51,0,0,0
8,0,0,0,0,0,505,52,0,0,0
9,0,0,0,0,0,501,52,0,0,0
10,0,0,0,0,0,497,51,0,0,0
11,0,0,0,0,3,503,51,0,0,0
12,0,0,0,0,0,509,52,0,0,0
13,0,0,0,0,0,520,51,0,0,0
14,0,0,0,0,0,518,51,0,0,0
15,0,0,0,0,3,517,52,0,0,0
0,0,0,0,0,0,510,49,0,0,0
1,0,0,0,0,0,513,51,0,0,0
2,0,0,0,0,0,507,52,0,0,0
3,0,0,0,0,3,514,52,0,0,0
4,0,0,0,0,1,514,51,0,0,0
5,0,0,0,0,0,513,51,0,0,0
6,0,0,0,0,0,458,52,0,0,0
7,0,0,0,0,3,438,52,0,0,0
8,0,0,0,0,0,490,52,0,0,0
9,0,0,0,0,0,575,49,0,0,0
10,0,0,0,0,0,508,52,0,0,0
11,0,0,0,0,1,500,52,0,0,0
12,0,0,0,0,0,512,51,0,0,0
13,0,0,0,0,0,515,51,0,0,0
14,0,0,0,0,0,514,49,0,0,0
15,0,0,0,0,3,515,51,0,0,0
0,0,0,0,0,0,507,51,0,0,0
1,0,0,0,0,0,510,52,0,0,0
2,0,0,0,0,0,507,52,0,0,0
3,0,0,0,0,3,497,50,0,0,0
4,0,0,0,0,0,461,50,0,0,0
5,0,0,0,0,0,448,51,0,0,0
6,0,0,0,0,0,432,51,0,0,0
7,0,0,0,0,3,421,52,0,0,0
8,0,0,0,0,0,402,52,0,0,0
9,0,0,0,0,0,389,50,0,0,0
10,0,0,0,0,0,364,51,0,0,0
11,0,0,0,0,3,344,52,0,0,0
12,0,0,0,0,0,322,51,0,0,0
13,0,0,0,0,0,305,51,0,0,0
14,0,0,0,0,0,294,51,0,0,0
15,0,0,0,0,3,306,51,0,0,0
0,0,0,0,0,0,319,51,0,0,0
1,0,0,0,0,0,344,52,0,0,0
2,0,0,0,0,0,369,51,0,0,0
3,0,0,0,0,3,397,51,0,0,0
4,0,0,0,0,0,425,52,0,0,0
5,0,0,0,0,0,458,52,0,0,0
6,0,0,0,0,0,476,51,0,0,0
7,0,0,0,0,3,489,50,0,0,0
8,0,0,0,0,0,495,49,0,0,0
9,0,0,0,0,0,508,51,0,0,0
10,0,0,0,0,0,518,52,0,0,0
11,0,0,0,0,3,530,52,0,0,0
12,0,0,0,0,0,536,50,0,0,0
13,0,0,0,0,0,548,51,0,0,0
14,0,0,0,0,0,556,53,0,0,0
15,0,0,0,0,3,566,51,0,0,0
0,0,0,0,0,0,565,50,0,0,0
1,0,0,0,0,0,571,50,0,0,0
2,0,0,0,0,0,569,50,0,0,0
3,0,0,0,0,3,575,51,0,0,0
4,0,0,0,0,0,573,49,0,0,0
5,0,0,0,0,0,583,52,0,0,0
6,0,0,0,0,0,584,52,0,0,0
7,0,0,0,0,0,592,51,0,0,0
8,0,0,0,0,0,590,50,0,0,0
9,0,0,0,0,0,598,52,0,0,0
10,0,0,0,0,0,593,52,0,0,0
11,0,0,0,0,3,601,51,0,0,0
12,0,0,0,0,0,600,49,0,0,0
13,0,0,0,0,0,607,49,0,0,0
14,0,0,0,0,0,610,49,0,0,0
15,0,0,0,0,3,615,50,0,0,0
0,0,0,0,0,0,605,52,0,0,0
1,0,0,0,0,0,600,52,0,0,0
2,0,0,0,0,0,602,52,0,0,0
3,0,0,0,0,3,607,51,0,0,0
4,0,0,0,0,0,594,51,0,0,0
5,0,0,0,0,0,595,49,0,0,0
6,0,0,0,0,0,591,50,0,0,0
7,0,0,0,0,3,591,50,0,0,0
8,0,0,0,0,0,583,52,0,0,0
9,0,0,0,0,0,583,51,0,0,0
10,0,0,0,0,0,575,51,0,0,0
11,0,0,0,0,0,571,52,0,0,0
12,0,0,0,0,0,561,51,0,0,0
13,0,0,0,0,0,559,52,0,0,0
14,0,0,0,0,0,553,49,0,0,0
15,0,0,0,0,3,557,51,0,0,0
0,0,0,0,0,0,551,52,0,0,0
1,0,0,0,0,0,552,52,0,0,0
2,0,0,0,0,0,541,51,0,0,0
3,0,0,0,0,3,542,52,0,0,0
4,0,0,0,0,0,534,49,0,0,0
5,0,0,0,0,0,532,51,0,0,0
6,0,0,0,0,0,529,52,0,0,0
7,0,0,0,0,3,529,51,0,0,0
8,0,0,0,0,0,526,50,0,0,0
9,0,0,0,0,0,537,52,0,0,0
10,0,0,0,0,0,538,51,0,0,0
11,0,0,0,0,3,543,52,0,0,0
12,0,0,0,0,0,537,49,0,0,0
13,0,0,0,0,0,538,51,0,0,0
14,0,0,0,0,0,530,52,0,0,0
15,0,0,0,0,3,528,52,0,0,0
0,0,0,0,0,0,526,49,0,0,0
1,0,0,0,0,0,526,52,0,0,0
2,0,0,0,0,0,485,50,0,0,0
3,0,0,0,0,3,439,51,0,0,0
4,0,0,0,0,1,472,51,0,0,0
5,0,0,0,0,0,562,50,0,0,0
6,0,0,0,0,0,532,52,0,0,0
7,0,0,0,0,3,506,49,0,0,0
8,0,0,0,0,0,520,52,0,0,0
9,0,0,0,0,0,527,50,0,0,0
10,0,0,0,0,0,523,51,0,0,0
11,0,0,0,0,3,527,52,0,0,0
12,0,0,0,0,0,519,52,0,0,0
13,0,0,0,0,0,518,50,0,0,0
14,0,0,0,0,0,511,52,0,0,0
15,0,0,0,0,3,509,52,0,0,0
0,0,0,0,0,0,505,51,0,0,0
1,0,0,0,0,0,504,50,0,0,0
2,0,0,0,0,0,497,50,0,0,0
3,0,0,0,0,3,500,51,0,0,0
4,0,0,0,0,0,499,52,0,0,0
5,0,0,0,0,0,503,51,0,0,0
6,0,0,0,0,0,498,50,0,0,0
7,0,0,0,0,1,497,52,0,0,0
8,0,0,0,0,0,492,51,0,0,0
9,0,0,0,0,0,492,50,0,0,0
10,0,0,0,0,0,488,52,0,0,0
11,0,0,0,0,3,496,50,0,0,0
12,0,0,0,0,0,496,50,0,0,0
13,0,0,0,0,0,506,50,0,0,0
14,0,0,0,0,0,512,52,0,0,0
15,0,0,0,0,3,521,51,0,0,0
0,0,0,0,0,0,519,49,0,0,0
1,0,0,0,0,0,532,52,0,0,0
2,0,0,0,0,0,532,51,0,0,0
3,0,0,0,0,3,535,52,0,0,0
4,0,0,0,0,0,533,52,0,0,0
5,0,0,0,0,0,536,49,0,0,0
6,0,0,0,0,0,527,52,0,0,0
7,0,0,0,0,3,528,51,0,0,0
8,0,0,0,0,0,521,49,0,0,0
9,0,0,0,0,0,523,52,0,0,0
10,0,0,0,0,0,520,51,0,0,0
11,0,0,0,0,3,521,51,0,0,0
12,0,0,0,0,0,516,52,0,0,0
13,0,0,0,0,0,515,51,0,0,0
14,0,0,0,0,0,503,51,0,0,0
15,0,0,0,0,3,499,51,0,0,0
0,0,0,0,0,0,488,52,0,0,0
1,0,0,0,0,0,486,50,0,0,0
2,0,0,0,0,0,479,52,0,0,0
3,0,0,0,0,3,486,52,0,0,0
4,0,0,0,0,0,484,52,0,0,0
5,0,0,0,0,0,491,50,0,0,0
6,0,0,0,0,0,488,52,0,0,0
7,0,0,0,0,3,495,52,0,0,0
8,0,0,0,0,0,492,50,0,0,0
9,0,0,0,0,0,496,51,0,0,0
10,0,0,0,0,0,494,51,0,0,0
11,0,0,0,0,3,484,49,0,0,0
12,0,0,0,0,0,471,51,0,0,0
13,0,0,0,0,0,476,52,0,0,0
14,0,0,0,0,0,476,51,0,0,0
15,0,0,0,0,3,481,50,0,0,0
0,0,0,0,0,0,476,50,0,0,0
1,0,0,0,0,0,483,52,0,0,0
2,0,0,0,0,0,484,51,0,0,0
3,0,0,0,0,0,492,52,0,0,0
4,0,0,0,0,0,493,51,0,0,0
5,0,0,0,0,0,500,52,0,0,0
6,0,0,0,0,0,498,50,0,0,0
7,0,0,0,0,3,503,49,0,0,0
8,0,0,0,0,0,504,52,0,0,0
9,0,0,0,0,0,508,52,0,0,0
10,0,0,0,0,0,505,50,0,0,0
11,0,0,0,0,3,506,50,0,0,0
12,0,0,0,0,0,503,52,0,0,0
13,0,0,0,0,0,507,52,0,0,0
14,0,0,0,0,0,504,51,0,0,0
15,0,0,0,0,3,512,51,0,0,0
0,0,0,0,0,0,507,49,0,0,0
1,0,0,0,0,0,511,51,0,0,0
2,0,0,0,0,0,504,52,0,0,0
3,0,0,0,0,3,500,52,0,0,0
4,0,0,0,0,0,498,49,0,0,0
5,0,0,0,0,0,503,52,0,0,0
6,0,0,0,0,0,501,52,0,0,0
7,0,0,0,0,3,514,51,0,0,0
8,0,0,0,0,0,520,49,0,0,0
9,0,0,0,0,0,523,49,0,0,0
10,0,0,0,0,0,519,50,0,0,0
11,0,0,0,0,3,528,51,0,0,0
12,0,0,0,0,0,524,53,0,0,0
13,0,0,0,0,0,527,50,0,0,0
14,0,0,0,0,0,528,51,0,0,0
15,0,0,0,0,3,527,51,0,0,0
0,0,0,0,0,0,478,52,0,0,0
1,0,0,0,0,0,445,52,0,0,0
2,0,0,0,0,0,491,51,0,0,0
3,0,0,0,0,3,578,50,0,0,0
4,0,0,0,0,0,515,52,0,0,0
5,0,0,0,0,0,508,50,0,0,0
6,0,0,0,0,0,521,52,0,0,0
7,0,0,0,0,3,529,49,0,0,0
8,0,0,0,0,0,526,52,0,0,0
9,0,0,0,0,0,529,51,0,0,0
10,0,0,0,0,0,524,51,0,0,0
11,0,0,0,0,3,525,52,0,0,0
12,0,0,0,0,1,521,52,0,0,0
13,0,0,0,0,0,521,51,0,0,0
14,0,0,0,0,0,516,52,0,0,0
15,0,0,0,0,1,521,51,0,0,0
0,0,0,0,0,0,518,49,0,0,0
1,0,0,0,0,0,524,50,0,0,0
2,0,0,0,0,0,520,52,0,0,0
3,0,0,0,0,3,518,51,0,0,0
4,0,0,0,0,0,508,52,0,0,0
5,0,0,0,0,0,503,51,0,0,0
6,0,0,0,0,0,492,52,0,0,0
7,0,0,0,0,3,488,52,0,0,0
8,0,0,0,0,0,487,50,0,0,0
9,0,0,0,0,0,491,52,0,0,0
10,0,0,0,0,0,491,51,0,0,0
11,0,0,0,0,3,498,51,0,0,0
12,0,0,0,0,0,507,52,0,0,0
13,0,0,0,0,0,521,50,0,0,0
14,0,0,0,0,0,524,53,0,0,0
15,0,0,0,0,3,527,52,0,0,0
0,0,0,0,0,0,520,50,0,0,0
1,0,0,0,0,0,517,52,0,0,0
2,0,0,0,0,0,508,50,0,0,0
3,0,0,0,0,3,509,51,0,0,0
4,0,0,0,0,0,502,52,0,0,0
5,0,0,0,0,0,499,50,0,0,0
6,0,0,0,0,0,494,51,0,0,0
7,0,0,0,0,3,497,50,0,0,0
8,0,0,0,0,0,495,52,0,0,0
9,0,0,0,0,0,499,51,0,0,0
10,0,0,0,0,0,495,51,0,0,0
11,0,0,0,0,3,500,52,0,0,0
12,0,0,0,0,0,501,51,0,0,0
13,0,0,0,0,0,505,49,0,0,0
14,0,0,0,0,0,505,51,0,0,0
15,0,0,0,0,3,510,52,0,0,0
0,0,0,0,0,0,504,52,0,0,0
1,0,0,0,0,0,501,50,0,0,0
2,0,0,0,0,0,491,51,0,0,0
3,0,0,0,0,3,494,53,0,0,0
4,0,0,0,0,0,490,50,0,0,0
5,0,0,0,0,0,494,51,0,0,0
6,0,0,0,0,0,493,52,0,0,0
7,0,0,0,0,3,496,50,0,0,0
8,0,0,0,0,0,492,50,0,0,0
9,0,0,0,0,0,497,52,0,0,0
10,0,0,0,0,0,498,51,0,0,0
11,0,0,0,0,1,499,51,0,0,0
12,0,0,0,0,0,494,52,0,0,0
13,0,0,0,0,0,500,52,0,0,0
14,0,0,0,0,0,494,49,0,0,0
15,0,0,0,0,3,499,51,0,0,0
0,0,0,0,0,0,492,50,0,0,0
1,0,0,0,0,0,498,52,0,0,0
2,0,0,0,0,0,497,52,0,0,0
3,0,0,0,0,3,503,52,0,0,0
4,0,0,0,0,0,498,51,0,0,0
5,0,0,0,0,0,500,50,0,0,0
6,0,0,0,0,0,493,52,0,0,0
7,0,0,0,0,3,499,52,0,0,0
8,0,0,0,0,0,496,52,0,0,0
9,0,0,0,0,0,498,52,0,0,0
10,0,0,0,0,0,488,52,0,0,0
11,0,0,0,0,3,491,52,0,0,0
12,0,0,0,0,0,488,52,0,0,0
13,0,0,0,0,0,488,51,0,0,0
14,0,0,0,0,0,491,52,0,0,0
15,0,0,0,0,3,497,51,0,0,0
0,0,0,0,0,0,495,51,0,0,0
1,0,0,0,0,0,510,52,0,0,0
2,0,0,0,0,0,517,49,0,0,0
3,0,0,0,0,3,523,52,0,0,0
4,0,0,0,0,0,516,50,0,0,0
5,0,0,0,0,0,517,50,0,0,0
6,0,0,0,0,0,515,52,0,0,0
7,0,0,0,0,3,522,51,0,0,0
8,0,0,0,0,0,520,49,0,0,0
9,0,0,0,0,0,520,51,0,0,0
10,0,0,0,0,0,486,52,0,0,0
11,0,0,0,0,3,449,52,0,0,0
12,0,0,0,0,0,486,52,0,0,0
13,0,0,0,0,0,579,52,0,0,0
14,0,0,0,0,0,547,51,0,0,0
15,0,0,0,0,3,512,52,0,0,0
0,0,0,0,0,0,524,51,0,0,0
1,0,0,0,0,0,528,50,0,0,0
2,0,0,0,0,0,526,51,0,0,0
3,0,0,0,0,3,525,52,0,0,0
4,0,0,0,0,0,524,50,0,0,0
5,0,0,0,0,0,528,52,0,0,0
6,0,0,0,0,0,526,51,0,0,0
7,0,0,0,0,1,523,49,0,0,0
8,0,0,0,0,0,515,50,0,0,0
9,0,0,0,0,0,515,52,0,0,0
10,0,0,0,0,0,508,52,0,0,0
11,0,0,0,0,3,509,49,0,0,0
12,0,0,0,0,0,499,52,0,0,0
13,0,0,0,0,0,500,51,0,0,0
14,0,0,0,0,0,497,52,0,0,0
15,0,0,0,0,3,496,51,0,0,0
0,0,0,0,0,0,491,50,0,0,0
1,0,0,0,0,0,493,52,0,0,0
2,0,0,0,0,0,484,52,0,0,0
3,0,0,0,0,3,487,50,0,0,0
4,0,0,0,0,0,486,49,0,0,0
5,0,0,0,0,0,494,52,0,0,0
6,0,0,0,0,0,496,49,0,0,0
7,0,0,0,0,3,510,52,0,0,0
8,0,0,0,0,0,510,50,0,0,0
9,0,0,0,0,0,516,50,0,0,0
10,0,0,0,0,0,511,52,0,0,0
11,0,0,0,0,3,515,51,0,0,0
12,0,0,0,0,0,512,49,0,0,0
13,0,0,0,0,0,511,52,0,0,0
14,0,0,0,0,0,504,50,0,0,0
15,0,0,0,0,3,507,52,0,0,0
0,0,0,0,0,0,501,52,0,0,0
1,0,0,0,0,0,503,50,0,0,0
2,0,0,0,0,0,495,52,0,0,0
3,0,0,0,0,3,496,50,0,0,0
4,0,0,0,0,0,489,50,0,0,0
5,0,0,0,0,0,494,51,0,0,0
6,0,0,0,0,0,491,50,0,0,0
7,0,0,0,0,3,492,51,0,0,0
8,0,0,0,0,0,487,52,0,0,0
9,0,0,0,0,0,486,49,0,0,0
10,0,0,0,0,0,482,52,0,0,0
11,0,0,0,0,3,486,51,0,0,0
12,0,0,0,0,0,484,50,0,0,0
13,0,0,0,0,0,490,49,0,0,0
14,0,0,0,0,0,492,51,0,0,0
15,0,0,0,0,3,497,50,0,0,0
0,0,0,0,0,0,495,49,0,0,0
1,0,0,0,0,0,504,51,0,0,0
2,0,0,0,0,0,500,52,0,0,0
3,0,0,0,0,1,511,51,0,0,0
4,0,0,0,0,0,513,52,0,0,0
5,0,0,0,0,0,513,49,0,0,0
6,0,0,0,0,0,511,49,0,0,0
7,0,0,0,0,3,515,51,0,0,0
8,0,0,0,0,0,518,52,0,0,0
9,0,0,0,0,0,520,52,0,0,0
10,0,0,0,0,0,521,50,0,0,0
11,0,0,0,0,3,528,52,0,0,0
12,0,0,0,0,0,530,49,0,0,0
13,0,0,0,0,0,531,52,0,0,0
14,0,0,0,0,0,524,51,0,0,0
15,0,0,0,0,3,524,50,0,0,0
0,0,0,0,0,0,510,52,0,0,0
1,0,0,0,0,0,515,51,0,0,0
2,0,0,0,0,0,515,50,0,0,0
3,0,0,0,0,3,524,50,0,0,0
4,0,0,0,0,0,528,52,0,0,0
5,0,0,0,0,0,533,49,0,0,0
6,0,0,0,0,0,527,52,0,0,0
7,0,0,0,0,1,526,52,0,0,0
8,0,0,0,0,0,525,50,0,0,0
9,0,0,0,0,0,524,51,0,0,0
10,0,0,0,0,0,518,52,0,0,0
11,0,0,0,0,3,521,51,0,0,0
12,0,0,0,0,0,514,50,0,0,0
13,0,0,0,0,0,476,51,0,0,0
14,0,0,0,0,0,441,52,0,0,0
15,0,0,0,0,3,492,52,0,0,0
0,0,0,0,0,0,578,52,0,0,0
1,0,0,0,0,0,532,49,0,0,0
2,0,0,0,0,0,502,52,0,0,0
3,0,0,0,0,3,518,52,0,0,0
4,0,0,0,0,0,513,51,0,0,0
5,0,0,0,0,0,512,50,0,0,0
6,0,0,0,0,0,508,51,0,0,0
7,0,0,0,0,3,513,52,0,0,0
8,0,0,0,0,0,514,50,0,0,0
9,0,0,0,0,0,521,51,0,0,0
10,0,0,0,0,0,516,52,0,0,0
11,0,0,0,0,3,516,52,0,0,0
12,0,0,0,0,0,510,49,0,0,0
13,0,0,0,0,0,514,52,0,0,0
14,0,0,0,0,0,505,52,0,0,0
15,0,0,0,0,3,507,49,0,0,0
0,0,0,0,0,0,506,51,0,0,0
1,0,0,0,0,0,509,52,0,0,0
2,0,0,0,0,0,499,51,0,0,0
3,0,0,0,0,3,499,52,0,0,0
4,0,0,0,0,0,495,51,0,0,0
5,0,0,0,0,0,500,51,0,0,0
6,0,0,0,0,0,503,49,0,0,0
7,0,0,0,0,3,511,52,0,0,0
8,0,0,0,0,0,514,52,0,0,0
9,0,0,0,0,0,525,50,0,0,0
10,0,0,0,0,0,532,51,0,0,0
11,0,0,0,0,3,544,52,0,0,0
12,0,0,0,0,0,545,49,0,0,0
13,0,0,0,0,0,551,52,0,0,0
14,0,0,0,0,0,550,52,0,0,0
15,0,0,0,0,3,550,50,0,0,0
0,0,0,0,0,0,540,51,0,0,0
1,0,0,0,0,0,543,52,0,0,0
2,0,0,0,0,0,534,50,0,0,0
3,0,0,0,0,1,532,51,0,0,0
4,0,0,0,0,0,524,49,0,0,0
5,0,0,0,0,0,520,52,0,0,0
6,0,0,0,0,0,513,51,0,0,0
7,0,0,0,0,3,514,49,0,0,0
8,0,0,0,0,0,512,51,0,0,0
9,0,0,0,0,0,513,50,0,0,0
10,0,0,0,0,0,508,52,0,0,0
11,0,0,0,0,3,508,50,0,0,0
12,0,0,0,0,0,503,52,0,0,0
13,0,0,0,0,0,502,51,0,0,0
14,0,0,0,0,0,497,50,0,0,0
15,0,0,0,0,3,504,52,0,0,0
0,0,0,0,0,0,502,51,0,0,0
1,0,0,0,0,0,496,51,0,0,0
2,0,0,0,0,0,473,52,0,0,0
3,0,0,0,0,3,478,49,0,0,0
4,0,0,0,0,0,476,51,0,0,0
5,0,0,0,0,0,483,51,0,0,0
6,0,0,0,0,0,483,52,0,0,0
7,0,0,0,0,3,493,50,0,0,0
8,0,0,0,0,0,494,52,0,0,0
9,0,0,0,0,0,499,51,0,0,0
10,0,0,0,0,0,500,52,0,0,0
11,0,0,0,0,3,505,51,0,0,0
12,0,0,0,0,0,502,50,0,0,0
13,0,0,0,0,0,508,52,0,0,0
14,0,0,0,0,0,507,51,0,0,0
15,0,0,0,0,3,515,52,0,0,0
0,0,0,0,0,0,516,51,0,0,0
1,0,0,0,0,0,524,49,0,0,0
2,0,0,0,0,0,523,52,0,0,0
3,0,0,0,0,3,523,51,0,0,0
4,0,0,0,0,0,520,50,0,0,0
5,0,0,0,0,0,523,52,0,0,0
6,0,0,0,0,0,513,51,0,0,0
7,0,0,0,0,3,520,52,0,0,0
8,0,0,0,0,0,520,52,0,0,0
9,0,0,0,0,0,534,52,0,0,0
10,0,0,0,0,0,544,51,0,0,0
11,0,0,0,0,3,555,49,0,0,0
12,0,0,0,0,0,548,51,0,0,0
13,0,0,0,0,0,546,51,0,0,0
14,0,0,0,0,0,541,52,0,0,0
15,0,0,0,0,1,542,51,0,0,0
0,0,0,0,0,0,539,52,0,0,0
1,0,0,0,0,0,547,51,0,0,0
2,0,0,0,0,0,537,50,0,0,0
3,0,0,0,0,3,489,52,0,0,0
4,0,0,0,0,0,448,52,0,0,0
5,0,0,0,0,0,507,50,0,0,0
6,0,0,0,0,0,587,51,0,0,0
7,0,0,0,0,3,526,51,0,0,0
8,0,0,0,0,0,513,51,0,0,0
9,0,0,0,0,0,533,52,0,0,0
10,0,0,0,0,0,534,49,0,0,0
11,0,0,0,0,3,541,51,0,0,0
12,0,0,0,0,0,530,52,0,0,0
13,0,0,0,0,0,529,51,0,0,0
14,0,0,0,0,0,520,49,0,0,0
15,0,0,0,0,3,523,51,0,0,0
0,0,0,0,0,0,514,49,0,0,0
1,0,0,0,0,0,513,51,0,0,0
2,0,0,0,0,0,506,52,0,0,0
3,0,0,0,0,3,509,49,0,0,0
4,0,0,0,0,0,505,52,0,0,0
5,0,0,0,0,0,508,50,0,0,0
6,0,0,0,0,0,500,52,0,0,0
7,0,0,0,0,3,497,52,0,0,0
8,0,0,0,0,0,492,52,0,0,0
9,0,0,0,0,0,495,49,0,0,0
10,0,0,0,0,0,489,52,0,0,0
11,0,0,0,0,3,493,50,0,0,0
12,0,0,0,0,0,496,52,0,0,0
13,0,0,0,0,0,506,52,0,0,0
14,0,0,0,0,0,505,52,0,0,0
15,0,0,0,0,3,517,51,0,0,0
0,0,0,0,0,0,523,52,0,0,0
1,0,0,0,0,0,535,50,0,0,0
2,0,0,0,0,0,539,51,0,0,0
3,0,0,0,0,3,543,50,0,0,0
4,0,0,0,0,0,535,51,0,0,0
5,0,0,0,0,0,537,51,0,0,0
6,0,0,0,0,0,527,50,0,0,0
7,0,0,0,0,3,525,51,0,0,0
8,0,0,0,0,0,519,52,0,0,0
9,0,0,0,0,0,523,52,0,0,0
10,0,0,0,0,0,516,50,0,0,0
11,0,0,0,0,1,523,52,0,0,0
12,0,0,0,0,0,517,51,0,0,0
13,0,0,0,0,0,519,52,0,0,0
14,0,0,0,0,0,516,51,0,0,0
15,0,0,0,0,3,518,50,0,0,0
0,0,0,0,0,0,516,51,0,0,0
1,0,0,0,0,0,517,52,0,0,0
2,0,0,0,0,0,513,50,0,0,0
3,0,0,0,0,3,515,52,0,0,0
4,0,0,0,0,0,509,51,0,0,0
5,0,0,0,0,0,510,50,0,0,0
6,0,0,0,0,0,508,51,0,0,0
7,0,0,0,0,3,514,52,0,0,0
8,0,0,0,0,0,512,50,0,0,0
9,0,0,0,0,0,519,52,0,0,0
10,0,0,0,0,0,516,52,0,0,0
11,0,0,0,0,3,521,49,0,0,0
12,0,0,0,0,0,518,52,0,0,0
13,0,0,0,0,0,519,50,0,0,0
14,0,0,0,0,0,512,52,0,0,0
15,0,0,0,0,3,515,51,0,0,0
0,0,0,0,0,0,515,51,0,0,0
1,0,0,0,0,0,519,52,0,0,0
2,0,0,0,0,0,511,49,0,0,0
3,0,0,0,0,3,511,52,0,0,0
4,0,0,0,0,0,504,49,0,0,0
5,0,0,0,0,0,504,51,0,0,0
6,0,0,0,0,0,497,51,0,0,0
7,0,0,0,0,3,496,51,0,0,0
8,0,0,0,0,0,493,52,0,0,0
9,0,0,0,0,0,494,50,0,0,0
10,0,0,0,0,0,482,52,0,0,0
11,0,0,0,0,3,482,50,0,0,0
12,0,0,0,0,0,478,52,0,0,0
13,0,0,0,0,0,483,51,0,0,0
14,0,0,0,0,0,481,52,0,0,0
15,0,0,0,0,3,495,51,0,0,0
0,0,0,0,0,0,496,49,0,0,0
1,0,0,0,0,0,510,52,0,0,0
2,0,0,0,0,0,521,51,0,0,0
3,0,0,0,0,3,535,51,0,0,0
4,0,0,0,0,0,531,52,0,0,0
5,0,0,0,0,0,533,49,0,0,0
6,0,0,0,0,0,527,52,0,0,0
7,0,0,0,0,0,529,52,0,0,0
8,0,0,0,0,0,535,50,0,0,0
9,0,0,0,0,0,543,50,0,0,0
10,0,0,0,0,0,531,52,0,0,0
11,0,0,0,0,3,469,51,0,0,0
12,0,0,0,0,0,444,51,0,0,0
13,0,0,0,0,0,510,50,0,0,0
14,0,0,0,0,0,580,52,0,0,0
15,0,0,0,0,3,516,50,0,0,0
0,0,0,0,0,0,517,51,0,0,0
1,0,0,0,0,0,524,51,0,0,0
2,0,0,0,0,0,514,50,0,0,0
3,0,0,0,0,3,521,52,0,0,0
4,0,0,0,0,0,512,49,0,0,0
5,0,0,0,0,0,518,52,0,0,0
6,0,0,0,0,0,509,49,0,0,0
7,0,0,0,0,3,516,52,0,0,0
8,0,0,0,0,0,515,49,0,0,0
9,0,0,0,0,0,513,52,0,0,0
10,0,0,0,0,0,509,52,0,0,0
11,0,0,0,0,3,507,51,0,0,0
12,0,0,0,0,0,498,52,0,0,0
13,0,0,0,0,0,501,51,0,0,0
14,0,0,0,0,0,495,50,0,0,0
15,0,0,0,0,3,500,52,0,0,0
0,0,0,0,0,0,496,50,0,0,0
1,0,0,0,0,0,489,51,0,0,0
2,0,0,0,0,0,486,52,0,0,0
3,0,0,0,0,3,491,49,0,0,0
4,0,0,0,0,0,496,52,0,0,0
5,0,0,0,0,0,496,51,0,0,0
6,0,0,0,0,0,479,50,0,0,0
7,0,0,0,0,3,494,52,0,0,0
8,0,0,0,0,0,519,49,0,0,0
9,0,0,0,0,0,516,52,0,0,0
10,0,0,0,0,0,512,52,0,0,0
11,0,0,0,0,3,507,51,0,0,0
12,0,0,0,0,0,505,52,0,0,0
13,0,0,0,0,0,496,50,0,0,0
14,0,0,0,0,0,488,52,0,0,0
15,0,0,0,0,3,532,52,0,0,0
0,0,0,0,0,0,522,50,0,0,0
1,0,0,0,0,0,509,51,0,0,0
2,0,0,0,0,0,512,50,0,0,0
3,0,0,0,0,1,500,52,0,0,0
4,0,0,0,0,0,494,52,0,0,0
5,0,0,0,0,0,498,51,0,0,0
6,0,0,0,0,0,472,52,0,0,0
7,0,0,0,0,3,465,52,0,0,0
8,0,0,0,0,0,490,49,0,0,0
9,0,0,0,0,0,522,52,0,0,0
10,0,0,0,0,0,508,52,0,0,0
11,0,0,0,0,3,500,50,0,0,0
12,0,0,0,0,0,498,52,0,0,0
13,0,0,0,0,0,502,51,0,0,0
14,0,0,0,0,0,500,51,0,0,0
15,0,0,0,0,3,502,52,0,0,0
0,0,0,0,0,0,498,51,0,0,0
1,0,0,0,0,0,522,49,0,0,0
2,0,0,0,0,0,500,50,0,0,0
3,0,0,0,0,3,517,52,0,0,0
4,0,0,0,0,0,508,50,0,0,0
5,0,0,0,0,0,525,51,0,0,0
6,0,0,0,0,0,521,51,0,0,0
7,0,0,0,0,3,518,50,0,0,0
8,0,0,0,0,0,517,50,0,0,0
9,0,0,0,0,0,523,52,0,0,0
10,0,0,0,0,0,509,50,0,0,0
11,0,0,0,0,3,509,49,0,0,0
12,0,0,0,0,0,536,51,0,0,0
13,0,0,0,0,0,531,51,0,0,0
14,0,0,0,0,0,522,52,0,0,0
15,0,0,0,0,3,528,51,0,0,0
0,0,0,0,0,0,519,51,0,0,0
1,0,0,0,0,0,518,51,0,0,0
2,0,0,0,0,0,521,51,0,0,0
3,0,0,0,0,3,528,51,0,0,0
4,0,0,0,0,0,525,52,0,0,0
5,0,0,0,0,0,535,49,0,0,0
6,0,0,0,0,0,537,51,0,0,0
7,0,0,0,0,3,540,51,0,0,0
8,0,0,0,0,0,513,49,0,0,0
9,0,0,0,0,0,536,51,0,0,0
10,0,0,0,0,0,551,50,0,0,0
11,0,0,0,0,3,536,51,0,0,0
12,0,0,0,0,0,535,49,0,0,0
13,0,0,0,0,0,527,51,0,0,0
14,0,0,0,0,0,496,50,0,0,0
15,0,0,0,0,1,454,51,0,0,0
0,0,0,0,0,0,492,50,0,0,0
1,0,0,0,0,0,551,51,0,0,0
2,0,0,0,0,0,540,49,0,0,0
3,0,0,0,0,3,499,51,0,0,0
4,0,0,0,0,0,496,51,0,0,0
5,0,0,0,0,0,521,49,0,0,0
6,0,0,0,0,0,527,52,0,0,0
7,0,0,0,0,3,516,49,0,0,0
8,0,0,0,0,0,513,52,0,0,0
9,0,0,0,0,0,513,49,0,0,0
10,0,0,0,0,0,506,51,0,0,0
11,0,0,0,0,3,502,51,0,0,0
12,0,0,0,0,0,499,51,0,0,0
13,0,0,0,0,0,503,51,0,0,0
14,0,0,0,0,0,483,50,0,0,0
15,0,0,0,0,3,511,51,0,0,0
0,0,0,0,0,0,509,51,0,0,0
1,0,0,0,0,0,498,51,0,0,0
2,0,0,0,0,0,488,49,0,0,0
3,0,0,0,0,0,493,51,0,0,0
4,0,0,0,0,0,483,49,0,0,0
5,0,0,0,0,0,480,49,0,0,0
6,0,0,0,0,0,468,52,0,0,0
7,0,0,0,0,3,480,49,0,0,0
8,0,0,0,0,0,452,52,0,0,0
9,0,0,0,0,0,492,51,0,0,0
10,0,0,0,0,0,494,50,0,0,0
11,0,0,0,0,3,500,50,0,0,0
12,0,0,0,0,0,499,51,0,0,0
13,0,0,0,0,0,508,52,0,0,0
14,0,0,0,0,0,502,51,0,0,0
15,0,0,0,0,3,492,49,0,0,0
0,0,0,0,0,0,490,51,0,0,0
1,0,0,0,0,0,517,51,0,0,0
2,0,0,0,0,0,511,52,0,0,0
3,0,0,0,0,3,515,50,0,0,0
4,0,0,0,0,0,506,52,0,0,0
5,0,0,0,0,0,501,49,0,0,0
6,0,0,0,0,0,492,51,0,0,0
7,0,0,0,0,3,500,49,0,0,0
8,0,0,0,0,0,504,51,0,0,0
9,0,0,0,0,0,499,51,0,0,0
10,0,0,0,0,0,478,50,0,0,0
11,0,0,0,0,3,509,49,0,0,0
12,0,0,0,0,0,512,49,0,0,0
13,0,0,0,0,0,504,51,0,0,0
14,0,0,0,0,0,498,51,0,0,0
15,0,0,0,0,3,491,51,0,0,0
0,0,0,0,0,0,476,51,0,0,0
1,0,0,0,0,0,505,49,0,0,0
2,0,0,0,0,0,510,51,0,0,0
3,0,0,0,0,3,518,51,0,0,0
4,0,0,0,0,0,509,49,0,0,0
5,0,0,0,0,0,511,51,0,0,0
6,0,0,0,0,0,497,51,0,0,0
7,0,0,0,0,3,498,49,0,0,0
8,0,0,0,0,0,513,51,0,0,0
9,0,0,0,0,0,534,51,0,0,0
10,0,0,0,0,0,521,51,0,0,0
11,0,0,0,0,3,505,51,0,0,0
12,0,0,0,0,0,517,49,0,0,0
13,0,0,0,0,0,515,52,0,0,0
14,0,0,0,0,0,510,49,0,0,0
15,0,0,0,0,0,516,51,0,0,0
0,0,0,0,0,0,507,50,0,0,0
1,0,0,0,0,0,516,52,0,0,0
2,0,0,0,0,0,516,50,0,0,0
3,0,0,0,0,3,519,49,0,0,0
4,0,0,0,0,0,517,51,0,0,0
5,0,0,0,0,0,518,51,0,0,0
6,0,0,0,0,0,512,49,0,0,0
7,0,0,0,0,3,512,51,0,0,0
8,0,0,0,0,0,511,50,0,0,0
9,0,0,0,0,0,510,51,0,0,0
10,0,0,0,0,0,507,50,0,0,0
11,0,0,0,0,3,510,51,0,0,0
12,0,0,0,0,0,496,51,0,0,0
13,0,0,0,0,0,470,49,0,0,0
14,0,0,0,0,0,443,51,0,0,0
15,0,0,0,0,3,480,49,0,0,0
0,0,0,0,0,0,538,51,0,0,0
1,0,0,0,0,0,501,49,0,0,0
2,0,0,0,0,0,492,51,0,0,0
3,0,0,0,0,3,515,49,0,0,0
4,0,0,0,0,0,521,51,0,0,0
5,0,0,0,0,0,529,51,0,0,0
6,0,0,0,0,0,521,49,0,0,0
7,0,0,0,0,3,521,51,0,0,0
8,0,0,0,0,0,516,49,0,0,0
9,0,0,0,0,0,515,52,0,0,0
10,0,0,0,0,0,509,49,0,0,0
11,0,0,0,0,3,513,51,0,0,0
12,0,0,0,0,0,513,49,0,0,0
13,0,0,0,0,0,511,51,0,0,0
14,0,0,0,0,0,507,51,0,0,0
15,0,0,0,0,3,505,51,0,0,0
0,0,0,0,0,0,496,49,0,0,0
1,0,0,0,0,0,497,51,0,0,0
2,0,0,0,0,0,488,49,0,0,0
3,0,0,0,0,3,493,51,0,0,0
4,0,0,0,0,0,486,52,0,0,0
5,0,0,0,0,0,490,49,0,0,0
6,0,0,0,0,0,481,51,0,0,0
7,0,0,0,0,3,489,51,0,0,0
8,0,0,0,0,0,493,49,0,0,0
9,0,0,0,0,0,509,51,0,0,0
10,0,0,0,0,0,518,51,0,0,0
11,0,0,0,0,1,530,51,0,0,0
12,0,0,0,0,0,531,49,0,0,0
13,0,0,0,0,0,529,51,0,0,0
14,0,0,0,0,0,530,51,0,0,0
15,0,0,0,0,3,537,50,0,0,0
0,0,0,0,0,0,533,51,0,0,0
1,0,0,0,0,0,533,51,0,0,0
2,0,0,0,0,0,523,51,0,0,0
3,0,0,0,0,3,527,50,0,0,0
4,0,0,0,0,0,516,49,0,0,0
5,0,0,0,0,0,518,52,0,0,0
6,0,0,0,0,0,515,51,0,0,0
7,0,0,0,0,3,528,51,0,0,0
8,0,0,0,0,0,526,51,0,0,0
9,0,0,0,0,0,525,49,0,0,0
10,0,0,0,0,0,516,52,0,0,0
11,0,0,0,0,3,516,51,0,0,0
12,0,0,0,0,0,511,49,0,0,0
13,0,0,0,0,0,516,51,0,0,0
14,0,0,0,0,0,512,52,0,0,0
15,0,0,0,0,3,516,49,0,0,0
0,0,0,0,0,0,510,51,0,0,0
1,0,0,0,0,0,515,51,0,0,0
2,0,0,0,0,0,511,52,0,0,0
3,0,0,0,0,3,515,49,0,0,0
4,0,0,0,0,0,510,51,0,0,0
5,0,0,0,0,0,517,52,0,0,0
6,0,0,0,0,0,512,51,0,0,0
7,0,0,0,0,3,518,50,0,0,0
8,0,0,0,0,0,508,51,0,0,0
9,0,0,0,0,0,514,51,0,0,0
10,0,0,0,0,0,513,52,0,0,0
11,0,0,0,0,3,515,50,0,0,0
12,0,0,0,0,0,507,51,0,0,0
13,0,0,0,0,0,511,51,0,0,0
14,0,0,0,0,0,507,51,0,0,0
15,0,0,0,0,3,512,51,0,0,0
0,0,0,0,0,0,505,51,0,0,0
1,0,0,0,0,0,503,51,0,0,0
2,0,0,0,0,0,504,51,0,0,0
3,0,0,0,0,3,508,51,0,0,0
4,0,0,0,0,0,509,52,0,0,0
5,0,0,0,0,0,518,52,0,0,0
6,0,0,0,0,0,515,50,0,0,0
7,0,0,0,0,1,516,52,0,0,0
8,0,0,0,0,0,509,51,0,0,0
9,0,0,0,0,0,508,52,0,0,0
10,0,0,0,0,0,502,49,0,0,0
11,0,0,0,0,3,508,52,0,0,0
12,0,0,0,0,0,511,49,0,0,0
13,0,0,0,0,0,509,52,0,0,0
14,0,0,0,0,0,461,50,0,0,0
15,0,0,0,0,3,443,52,0,0,0
0,0,0,0,0,0,485,50,0,0,0
1,0,0,0,0,0,551,52,0,0,0
2,0,0,0,0,0,496,52,0,0,0
3,0,0,0,0,3,500,50,0,0,0
4,0,0,0,0,0,508,53,0,0,0
5,0,0,0,0,0,513,52,0,0,0
6,0,0,0,0,0,510,50,0,0,0
7,0,0,0,0,3,515,53,0,0,0
8,0,0,0,0,0,508,50,0,0,0
9,0,0,0,0,0,511,52,0,0,0
10,0,0,0,0,0,508,52,0,0,0
11,0,0,0,0,3,508,51,0,0,0
12,0,0,0,0,0,509,52,0,0,0
13,0,0,0,0,0,513,52,0,0,0
14,0,0,0,0,0,503,53,0,0,0
15,0,0,0,0,3,499,50,0,0,0
0,0,0,0,0,1,493,52,0,0,0
1,0,0,0,0,0,493,52,0,0,0
2,0,0,0,0,0,482,50,0,0,0
3,0,0,0,0,3,489,53,0,0,0
4,0,0,0,0,0,484,52,0,0,0
5,0,0,0,0,0,492,50,0,0,0
6,0,0,0,0,0,499,52,0,0,0
7,0,0,0,0,3,510,51,0,0,0
8,0,0,0,0,0,512,53,0,0,0
9,0,0,0,0,0,527,52,0,0,0
10,0,0,0,0,0,531,52,0,0,0
11,0,0,0,0,3,540,53,0,0,0
12,0,0,0,0,0,545,50,0,0,0
13,0,0,0,0,0,545,53,0,0,0
14,0,0,0,0,0,535,53,0,0,0
15,0,0,0,0,3,538,53,0,0,0
0,0,0,0,0,0,526,51,0,0,0
1,0,0,0,0,0,528,53,0,0,0
2,0,0,0,0,0,523,51,0,0,0
3,0,0,0,0,0,521,53,0,0,0
4,0,0,0,0,0,519,53,0,0,0
5,0,0,0,0,0,518,52,0,0,0
6,0,0,0,0,0,510,52,0,0,0
7,0,0,0,0,3,508,52,0,0,0
8,0,0,0,0,0,499,53,0,0,0
9,0,0,0,0,0,504,51,0,0,0
10,0,0,0,0,0,501,53,0,0,0
11,0,0,0,0,3,507,50,0,0,0
12,0,0,0,0,0,514,51,0,0,0
13,0,0,0,0,0,519,53,0,0,0
14,0,0,0,0,0,516,51,0,0,0
15,0,0,0,0,3,517,53,0,0,0
0,0,0,0,0,0,511,51,0,0,0
1,0,0,0,0,0,511,53,0,0,0
2,0,0,0,0,0,506,52,0,0,0
3,0,0,0,0,3,513,50,0,0,0
4,0,0,0,0,0,515,52,0,0,0
5,0,0,0,0,0,520,50,0,0,0
6,0,0,0,0,0,517,52,0,0,0
7,0,0,0,0,3,520,53,0,0,0
8,0,0,0,0,0,524,53,0,0,0
9,0,0,0,0,0,528,53,0,0,0
10,0,0,0,0,0,528,52,0,0,0
11,0,0,0,0,3,536,52,0,0,0
12,0,0,0,0,0,536,52,0,0,0
13,0,0,0,0,0,543,51,0,0,0
14,0,0,0,0,0,537,53,0,0,0
15,0,0,0,0,3,535,52,0,0,0
0,0,0,0,0,0,532,52,0,0,0
1,0,0,0,0,0,533,53,0,0,0
2,0,0,0,0,0,529,52,0,0,0
3,0,0,0,0,3,529,52,0,0,0
4,0,0,0,0,0,524,53,0,0,0
5,0,0,0,0,0,525,50,0,0,0
6,0,0,0,0,0,517,53,0,0,0
7,0,0,0,0,3,513,51,0,0,0
8,0,0,0,0,0,508,53,0,0,0
9,0,0,0,0,0,511,52,0,0,0
10,0,0,0,0,0,508,53,0,0,0
11,0,0,0,0,3,518,52,0,0,0
12,0,0,0,0,0,520,53,0,0,0
13,0,0,0,0,0,521,53,0,0,0
14,0,0,0,0,0,515,51,0,0,0
15,0,0,0,0,1,510,52,0,0,0
0,0,0,0,0,0,506,53,0,0,0
1,0,0,0,0,0,508,50,0,0,0
2,0,0,0,0,0,505,53,0,0,0
3,0,0,0,0,3,509,52,0,0,0
4,0,0,0,0,0,493,53,0,0,0
5,0,0,0,0,0,445,51,0,0,0
6,0,0,0,0,0,455,53,0,0,0
7,0,0,0,0,3,521,52,0,0,0
8,0,0,0,0,0,547,51,0,0,0
9,0,0,0,0,0,499,52,0,0,0
10,0,0,0,0,0,512,54,0,0,0
11,0,0,0,0,3,523,52,0,0,0
12,0,0,0,0,0,521,53,0,0,0
13,0,0,0,0,0,527,53,0,0,0
14,0,0,0,0,0,525,51,0,0,0
15,0,0,0,0,3,532,53,0,0,0
0,0,0,0,0,0,527,51,0,0,0
1,0,0,0,0,0,524,53,0,0,0
2,0,0,0,0,0,515,52,0,0,0
3,0,0,0,0,3,516,53,0,0,0
4,0,0,0,0,0,512,52,0,0,0
5,0,0,0,0,0,515,53,0,0,0
6,0,0,0,0,0,510,53,0,0,0
7,0,0,0,0,3,519,52,0,0,0
8,0,0,0,0,0,515,53,0,0,0
9,0,0,0,0,0,515,53,0,0,0
10,0,0,0,0,0,509,53,0,0,0
11,0,0,0,0,3,507,51,0,0,0
12,0,0,0,0,0,496,53,0,0,0
13,0,0,0,0,0,496,52,0,0,0
14,0,0,0,0,0,495,53,0,0,0
15,0,0,0,0,3,507,52,0,0,0
0,0,0,0,0,0,512,51,0,0,0
1,0,0,0,0,0,522,53,0,0,0
2,0,0,0,0,0,524,51,0,0,0
3,0,0,0,0,3,531,53,0,0,0
4,0,0,0,0,0,531,51,0,0,0
5,0,0,0,0,0,531,54,0,0,0
6,0,0,0,0,0,526,51,0,0,0
7,0,0,0,0,3,527,53,0,0,0
8,0,0,0,0,0,521,50,0,0,0
9,0,0,0,0,0,519,53,0,0,0
10,0,0,0,0,0,508,51,0,0,0
11,0,0,0,0,1,510,51,0,0,0
12,0,0,0,0,0,502,53,0,0,0
13,0,0,0,0,0,501,52,0,0,0
14,0,0,0,0,0,496,53,0,0,0
15,0,0,0,0,3,491,54,0,0,0
0,0,0,0,0,0,480,53,0,0,0
1,0,0,0,0,0,481,51,0,0,0
2,0,0,0,0,0,483,52,0,0,0
3,0,0,0,0,3,487,53,0,0,0
4,0,0,0,0,0,496,53,0,0,0
5,0,0,0,0,0,510,52,0,0,0
6,0,0,0,0,0,498,53,0,0,0
7,0,0,0,0,3,492,51,0,0,0
8,0,0,0,0,0,484,53,0,0,0
9,0,0,0,0,0,487,51,0,0,0
10,0,0,0,0,0,487,54,0,0,0
11,0,0,0,0,3,490,54,0,0,0
12,0,0,0,0,0,489,53,0,0,0
13,0,0,0,0,0,491,51,0,0,0
14,0,0,0,0,0,478,54,0,0,0
15,0,0,0,0,0,483,53,0,0,0
0,0,0,0,0,0,477,51,0,0,0
1,0,0,0,0,0,481,54,0,0,0
2,0,0,0,0,0,478,51,0,0,0
3,0,0,0,0,3,479,54,0,0,0
4,0,0,0,0,0,483,51,0,0,0
5,0,0,0,0,0,490,52,0,0,0
6,0,0,0,0,0,496,54,0,0,0
7,0,0,0,0,3,505,51,0,0,0
8,0,0,0,0,0,501,53,0,0,0
9,0,0,0,0,0,511,54,0,0,0
10,0,0,0,0,0,512,53,0,0,0
11,0,0,0,0,3,507,51,0,0,0
12,0,0,0,0,0,498,54,0,0,0
13,0,0,0,0,0,494,53,0,0,0
14,0,0,0,0,0,483,51,0,0,0
15,0,0,0,0,3,484,52,0,0,0
0,0,0,0,0,0,487,54,0,0,0
1,0,0,0,0,0,497,52,0,0,0
2,0,0,0,0,0,499,53,0,0,0
3,0,0,0,0,3,509,51,0,0,0
4,0,0,0,0,0,509,54,0,0,0
5,0,0,0,0,0,511,51,0,0,0
6,0,0,0,0,0,506,52,0,0,0
7,0,0,0,0,3,511,54,0,0,0
8,0,0,0,0,0,508,53,0,0,0
9,0,0,0,0,0,514,53,0,0,0
10,0,0,0,0,0,513,54,0,0,0
11,0,0,0,0,3,490,54,0,0,0
12,0,0,0,0,0,450,54,0,0,0
13,0,0,0,0,0,481,54,0,0,0
14,0,0,0,0,0,539,54,0,0,0
15,0,0,0,0,3,533,52,0,0,0
0,0,0,0,0,0,499,54,0,0,0
1,0,0,0,0,0,522,51,0,0,0
2,0,0,0,0,0,519,54,0,0,0
3,0,0,0,0,3,522,51,0,0,0
4,0,0,0,0,0,516,53,0,0,0
5,0,0,0,0,0,516,53,0,0,0
6,0,0,0,0,0,514,54,0,0,0
7,0,0,0,0,3,517,52,0,0,0
8,0,0,0,0,0,518,53,0,0,0
9,0,0,0,0,0,523,52,0,0,0
10,0,0,0,0,0,516,54,0,0,0
11,0,0,0,0,0,517,52,0,0,0
12,0,0,0,0,0,508,53,0,0,0
13,0,0,0,0,0,513,53,0,0,0
14,0,0,0,0,0,504,54,0,0,0
15,0,0,0,0,3,501,53,0,0,0
0,0,0,0,0,0,493,52,0,0,0
1,0,0,0,0,0,487,53,0,0,0
2,0,0,0,0,0,482,53,0,0,0
3,0,0,0,0,3,495,51,0,0,0
4,0,0,0,0,0,487,53,0,0,0
5,0,0,0,0,0,489,51,0,0,0
6,0,0,0,0,0,492,54,0,0,0
7,0,0,0,0,3,505,53,0,0,0
8,0,0,0,0,0,512,51,0,0,0
9,0,0,0,0,0,520,51,0,0,0
10,0,0,0,0,0,519,54,0,0,0
11,0,0,0,0,3,524,52,0,0,0
12,0,0,0,0,0,513,52,0,0,0
13,0,0,0,0,0,513,53,0,0,0
14,0,0,0,0,0,513,52,0,0,0
15,0,0,0,0,3,518,53,0,0,0
0,0,0,0,0,0,511,53,0,0,0
1,0,0,0,0,0,517,53,0,0,0
2,0,0,0,0,0,513,51,0,0,0
3,0,0,0,0,3,513,54,0,0,0
4,0,0,0,0,0,508,51,0,0,0
5,0,0,0,0,0,513,53,0,0,0
6,0,0,0,0,0,514,54,0,0,0
7,0,0,0,0,3,515,53,0,0,0
8,0,0,0,0,0,515,52,0,0,0
9,0,0,0,0,0,518,51,0,0,0
10,0,0,0,0,0,512,52,0,0,0
11,0,0,0,0,3,514,54,0,0,0
12,0,0,0,0,0,513,51,0,0,0
13,0,0,0,0,0,512,52,0,0,0
14,0,0,0,0,0,505,54,0,0,0
15,0,0,0,0,3,504,53,0,0,0
0,0,0,0,0,0,499,52,0,0,0
1,0,0,0,0,0,501,52,0,0,0
2,0,0,0,0,0,496,54,0,0,0
3,0,0,0,0,3,497,52,0,0,0
4,0,0,0,0,0,498,54,0,0,0
5,0,0,0,0,0,504,51,0,0,0
6,0,0,0,0,0,496,54,0,0,0
7,0,0,0,0,1,502,53,0,0,0
8,0,0,0,0,0,497,52,0,0,0
9,0,0,0,0,0,496,54,0,0,0
10,0,0,0,0,0,489,51,0,0,0
11,0,0,0,0,3,491,54,0,0,0
12,0,0,0,0,0,491,51,0,0,0
13,0,0,0,0,0,497,54,0,0,0
14,0,0,0,0,0,492,51,0,0,0
15,0,0,0,0,3,499,53,0,0,0
0,0,0,0,0,0,498,51,0,0,0
1,0,0,0,0,0,500,51,0,0,0
2,0,0,0,0,0,493,54,0,0,0
3,0,0,0,0,3,489,53,0,0,0
4,0,0,0,0,0,489,52,0,0,0
5,0,0,0,0,0,494,52,0,0,0
6,0,0,0,0,0,479,53,0,0,0
7,0,0,0,0,3,489,54,0,0,0
8,0,0,0,0,0,483,52,0,0,0
9,0,0,0,0,0,496,52,0,0,0
10,0,0,0,0,0,502,53,0,0,0
11,0,0,0,0,3,512,52,0,0,0
12,0,0,0,0,0,510,53,0,0,0
13,0,0,0,0,0,513,51,0,0,0
14,0,0,0,0,0,515,54,0,0,0
15,0,0,0,0,3,522,53,0,0,0
0,0,0,0,0,0,512,53,0,0,0
1,0,0,0,0,0,516,51,0,0,0
2,0,0,0,0,0,507,53,0,0,0
3,0,0,0,0,3,456,54,0,0,0
4,0,0,0,0,0,427,53,0,0,0
5,0,0,0,0,0,486,52,0,0,0
6,0,0,0,0,0,568,54,0,0,0
7,0,0,0,0,3,503,52,0,0,0
8,0,0,0,0,0,495,54,0,0,0
9,0,0,0,0,0,512,51,0,0,0
10,0,0,0,0,0,508,54,0,0,0
11,0,0,0,0,3,515,51,0,0,0
12,0,0,0,0,0,515,54,0,0,0
13,0,0,0,0,0,507,51,0,0,0
14,0,0,0,0,0,496,54,0,0,0
15,0,0,0,0,3,494,54,0,0,0
0,0,0,0,0,0,477,53,0,0,0
1,0,0,0,0,0,467,53,0,0,0
2,0,0,0,0,0,457,52,0,0,0
3,0,0,0,0,0,452,53,0,0,0
4,0,0,0,0,0,446,52,0,0,0
5,0,0,0,0,0,446,53,0,0,0
6,0,0,0,0,0,447,53,0,0,0
7,0,0,0,0,3,455,53,0,0,0
8,0,0,0,0,0,453,54,0,0,0
9,0,0,0,0,0,454,51,0,0,0
10,0,0,0,0,0,460,54,0,0,0
11,0,0,0,0,3,467,53,0,0,0
12,0,0,0,0,0,472,52,0,0,0
13,0,0,0,0,0,479,53,0,0,0
14,0,0,0,0,0,486,52,0,0,0
15,0,0,0,0,3,500,54,0,0,0
0,0,0,0,0,0,509,52,0,0,0
1,0,0,0,0,0,521,53,0,0,0
2,0,0,0,0,0,527,54,0,0,0
3,0,0,0,0,3,534,51,0,0,0
4,0,0,0,0,0,528,54,0,0,0
5,0,0,0,0,0,534,52,0,0,0
6,0,0,0,0,0,531,54,0,0,0
7,0,0,0,0,3,532,52,0,0,0
8,0,0,0,0,0,527,53,0,0,0
9,0,0,0,0,0,528,54,0,0,0
10,0,0,0,0,0,524,51,0,0,0
11,0,0,0,0,3,528,54,0,0,0
12,0,0,0,0,0,524,53,0,0,0
13,0,0,0,0,0,526,53,0,0,0
14,0,0,0,0,0,520,51,0,0,0
15,0,0,0,0,3,521,53,0,0,0
0,0,0,0,0,0,518,54,0,0,0
1,0,0,0,0,0,523,51,0,0,0
2,0,0,0,0,0,523,54,0,0,0
3,0,0,0,0,3,524,54,0,0,0
4,0,0,0,0,0,526,52,0,0,0
5,0,0,0,0,0,527,51,0,0,0
6,0,0,0,0,0,525,54,0,0,0
7,0,0,0,0,3,527,52,0,0,0
8,0,0,0,0,0,519,53,0,0,0
9,0,0,0,0,0,523,53,0,0,0
10,0,0,0,0,0,519,51,0,0,0
11,0,0,0,0,3,522,54,0,0,0
12,0,0,0,0,1,520,51,0,0,0
13,0,0,0,0,0,524,54,0,0,0
14,0,0,0,0,0,520,53,0,0,0
15,0,0,0,0,0,523,52,0,0,0
0,0,0,0,0,0,528,53,0,0,0
1,0,0,0,0,0,534,54,0,0,0
2,0,0,0,0,0,531,51,0,0,0
3,0,0,0,0,3,532,54,0,0,0
4,0,0,0,0,0,527,51,0,0,0
5,0,0,0,0,0,530,54,0,0,0
6,0,0,0,0,0,527,52,0,0,0
7,0,0,0,0,3,525,53,0,0,0
8,0,0,0,0,0,514,53,0,0,0
9,0,0,0,0,0,510,53,0,0,0
10,0,0,0,0,0,499,53,0,0,0
11,0,0,0,0,3,495,53,0,0,0
12,0,0,0,0,0,488,51,0,0,0
13,0,0,0,0,0,493,53,0,0,0
14,0,0,0,0,0,480,51,0,0,0
15,0,0,0,0,3,490,54,0,0,0
0,0,0,0,0,0,487,51,0,0,0
1,0,0,0,0,0,496,54,0,0,0
2,0,0,0,0,0,500,51,0,0,0
3,0,0,0,0,3,513,54,0,0,0
4,0,0,0,0,0,513,51,0,0,0
5,0,0,0,0,0,518,53,0,0,0
6,0,0,0,0,0,514,52,0,0,0
7,0,0,0,0,3,518,54,0,0,0
8,0,0,0,0,0,514,52,0,0,0
9,0,0,0,0,0,519,53,0,0,0
10,0,0,0,0,0,507,51,0,0,0
11,0,0,0,0,3,448,54,0,0,0
12,0,0,0,0,0,414,51,0,0,0
13,0,0,0,0,0,497,54,0,0,0
14,0,0,0,0,0,591,51,0,0,0
15,0,0,0,0,3,527,53,0,0,0
0,0,0,0,0,0,523,52,0,0,0
1,0,0,0,0,0,547,54,0,0,0
2,0,0,0,0,0,548,54,0,0,0
3,0,0,0,0,3,549,54,0,0,0
4,0,0,0,0,0,544,53,0,0,0
5,0,0,0,0,0,547,51,0,0,0
6,0,0,0,0,0,546,54,0,0,0
7,0,0,0,0,3,549,53,0,0,0
8,0,0,0,0,0,539,52,0,0,0
9,0,0,0,0,0,542,53,0,0,0
10,0,0,0,0,0,535,54,0,0,0
11,0,0,0,0,1,530,51,0,0,0
12,0,0,0,0,0,522,54,0,0,0
13,0,0,0,0,0,523,53,0,0,0
14,0,0,0,0,0,521,53,0,0,0
15,0,0,0,0,3,523,53,0,0,0
0,0,0,0,0,0,512,53,0,0,0
1,0,0,0,0,0,514,54,0,0,0
2,0,0,0,0,0,506,51,0,0,0
3,0,0,0,0,3,506,54,0,0,0
4,0,0,0,0,0,503,51,0,0,0
5,0,0,0,0,0,505,54,0,0,0
6,0,0,0,0,0,511,52,0,0,0
7,0,0,0,0,3,529,54,0,0,0
8,0,0,0,0,0,527,51,0,0,0
9,0,0,0,0,0,540,54,0,0,0
10,0,0,0,0,0,544,54,0,0,0
11,0,0,0,0,3,547,51,0,0,0
12,0,0,0,0,0,543,54,0,0,0
13,0,0,0,0,0,551,53,0,0,0
14,0,0,0,0,0,540,53,0,0,0
15,0,0,0,0,3,542,52,0,0,0
0,0,0,0,0,0,537,53,0,0,0
1,0,0,0,0,0,540,54,0,0,0
2,0,0,0,0,0,532,51,0,0,0
3,0,0,0,0,3,528,52,0,0,0
4,0,0,0,0,0,520,54,0,0,0
5,0,0,0,0,0,520,51,0,0,0
6,0,0,0,0,0,513,53,0,0,0
7,0,0,0,0,3,515,51,0,0,0
8,0,0,0,0,0,512,54,0,0,0
9,0,0,0,0,0,512,51,0,0,0
10,0,0,0,0,0,510,54,0,0,0
11,0,0,0,0,3,515,53,0,0,0
12,0,0,0,0,0,516,54,0,0,0
13,0,0,0,0,0,518,52,0,0,0
14,0,0,0,0,0,518,54,0,0,0
15,0,0,0,0,3,524,52,0,0,0
0,0,0,0,0,0,519,53,0,0,0
1,0,0,0,0,0,526,51,0,0,0
2,0,0,0,0,0,529,54,0,0,0
3,0,0,0,0,3,535,52,0,0,0
4,0,0,0,0,0,536,52,0,0,0
5,0,0,0,0,0,542,54,0,0,0
6,0,0,0,0,0,539,53,0,0,0
7,0,0,0,0,1,533,51,0,0,0
8,0,0,0,0,0,528,53,0,0,0
9,0,0,0,0,0,535,54,0,0,0
10,0,0,0,0,0,529,53,0,0,0
11,0,0,0,0,3,534,51,0,0,0
12,0,0,0,0,0,531,52,0,0,0
13,0,0,0,0,0,532,52,0,0,0
14,0,0,0,0,0,533,53,0,0,0
15,0,0,0,0,3,539,53,0,0,0
0,0,0,0,0,0,527,54,0,0,0
1,0,0,0,0,0,527,54,0,0,0
2,0,0,0,0,0,518,52,0,0,0
3,0,0,0,0,3,515,54,0,0,0
4,0,0,0,0,0,508,54,0,0,0
5,0,0,0,0,0,511,53,0,0,0
6,0,0,0,0,0,507,53,0,0,0
7,0,0,0,0,3,518,51,0,0,0
8,0,0,0,0,0,519,52,0,0,0
9,0,0,0,0,0,525,54,0,0,0
10,0,0,0,0,0,521,54,0,0,0
11,0,0,0,0,0,523,52,0,0,0
12,0,0,0,0,0,521,54,0,0,0
13,0,0,0,0,0,527,54,0,0,0
14,0,0,0,0,0,525,52,0,0,0
15,0,0,0,0,3,530,51,0,0,0
0,0,0,0,0,0,499,54,0,0,0
1,0,0,0,0,0,443,52,0,0,0
2,0,0,0,0,0,460,53,0,0,0
3,0,0,0,0,3,558,54,0,0,0
4,0,0,0,0,0,545,52,0,0,0
5,0,0,0,0,0,499,54,0,0,0
6,0,0,0,0,0,511,53,0,0,0
7,0,0,0,0,3,521,54,0,0,0
8,0,0,0,0,0,514,51,0,0,0
9,0,0,0,0,0,514,54,0,0,0
10,0,0,0,0,0,505,54,0,0,0
11,0,0,0,0,3,511,53,0,0,0
12,0,0,0,0,0,510,54,0,0,0
13,0,0,0,0,0,510,51,0,0,0
14,0,0,0,0,0,505,53,0,0,0
15,0,0,0,0,3,508,52,0,0,0
0,0,0,0,0,0,504,54,0,0,0
1,0,0,0,0,0,505,53,0,0,0
2,0,0,0,0,0,501,54,0,0,0
3,0,0,0,0,3,502,51,0,0,0
4,0,0,0,0,0,493,53,0,0,0
5,0,0,0,0,0,496,52,0,0,0
6,0,0,0,0,0,489,54,0,0,0
7,0,0,0,0,3,491,52,0,0,0
8,0,0,0,0,1,489,51,0,0,0
9,0,0,0,0,0,489,54,0,0,0
10,0,0,0,0,0,482,52,0,0,0
11,0,0,0,0,3,490,54,0,0,0
12,0,0,0,0,0,495,53,0,0,0
13,0,0,0,0,0,508,53,0,0,0
14,0,0,0,0,0,508,54,0,0,0
15,0,0,0,0,3,515,51,0,0,0
0,0,0,0,0,0,515,51,0,0,0
1,0,0,0,0,0,521,52,0,0,0
2,0,0,0,0,0,514,54,0,0,0
3,0,0,0,0,3,513,53,0,0,0
4,0,0,0,0,0,507,51,0,0,0
5,0,0,0,0,0,508,53,0,0,0
6,0,0,0,0,0,503,54,0,0,0
7,0,0,0,0,0,504,54,0,0,0
8,0,0,0,0,0,499,53,0,0,0
9,0,0,0,0,0,503,53,0,0,0
10,0,0,0,0,0,499,51,0,0,0
11,0,0,0,0,3,501,54,0,0,0
12,0,0,0,0,0,496,51,0,0,0
13,0,0,0,0,0,497,54,0,0,0
14,0,0,0,0,0,494,51,0,0,0
15,0,0,0,0,3,498,54,0,0,0
0,0,0,0,0,0,492,52,0,0,0
1,0,0,0,0,0,496,54,0,0,0
2,0,0,0,0,0,494,53,0,0,0
3,0,0,0,0,3,497,54,0,0,0
4,0,0,0,0,0,493,52,0,0,0
5,0,0,0,0,0,494,53,0,0,0
6,0,0,0,0,0,493,54,0,0,0
7,0,0,0,0,3,498,52,0,0,0
8,0,0,0,0,0,491,54,0,0,0
9,0,0,0,0,0,496,52,0,0,0
10,0,0,0,0,0,492,54,0,0,0
11,0,0,0,0,3,492,52,0,0,0
12,0,0,0,0,0,488,53,0,0,0
13,0,0,0,0,0,495,54,0,0,0
14,0,0,0,0,0,492,53,0,0,0
15,0,0,0,0,3,499,52,0,0,0
0,0,0,0,0,0,493,54,0,0,0
1,0,0,0,0,0,499,52,0,0,0
2,0,0,0,0,0,496,54,0,0,0
3,0,0,0,0,3,491,51,0,0,0
4,0,0,0,0,0,486,54,0,0,0
5,0,0,0,0,0,491,54,0,0,0
6,0,0,0,0,0,485,53,0,0,0
7,0,0,0,0,3,494,54,0,0,0
8,0,0,0,0,0,496,52,0,0,0
9,0,0,0,0,0,503,54,0,0,0
10,0,0,0,0,0,500,51,0,0,0
11,0,0,0,0,3,502,54,0,0,0
12,0,0,0,0,0,499,52,0,0,0
13,0,0,0,0,0,503,54,0,0,0
14,0,0,0,0,0,507,52,0,0,0
15,0,0,0,0,3,514,54,0,0,0
0,0,0,0,0,0,483,53,0,0,0
1,0,0,0,0,0,426,53,0,0,0
2,0,0,0,0,0,454,53,0,0,0
3,0,0,0,0,0,547,54,0,0,0
4,0,0,0,0,0,539,52,0,0,0
5,0,0,0,0,0,494,52,0,0,0
6,0,0,0,0,0,508,54,0,0,0
7,0,0,0,0,3,520,51,0,0,0
8,0,0,0,0,0,520,54,0,0,0
9,0,0,0,0,0,521,51,0,0,0
10,0,0,0,0,0,520,53,0,0,0
11,0,0,0,0,3,526,51,0,0,0
12,0,0,0,0,0,519,53,0,0,0
13,0,0,0,0,0,517,54,0,0,0
14,0,0,0,0,0,513,54,0,0,0
15,0,0,0,0,3,512,51,0,0,0
0,0,0,0,0,0,509,51,0,0,0
1,0,0,0,0,0,507,53,0,0,0
2,0,0,0,0,0,504,54,0,0,0
3,0,0,0,0,3,504,52,0,0,0
4,0,0,0,0,0,498,53,0,0,0
5,0,0,0,0,0,501,54,0,0,0
6,0,0,0,0,0,491,53,0,0,0
7,0,0,0,0,3,491,54,0,0,0
8,0,0,0,0,0,487,53,0,0,0
9,0,0,0,0,0,493,51,0,0,0
10,0,0,0,0,0,492,54,0,0,0
11,0,0,0,0,3,502,54,0,0,0
12,0,0,0,0,0,508,52,0,0,0
13,0,0,0,0,0,519,54,0,0,0
14,0,0,0,0,0,522,53,0,0,0
15,0,0,0,0,3,531,51,0,0,0
0,0,0,0,0,0,527,51,0,0,0
1,0,0,0,0,0,529,53,0,0,0
2,0,0,0,0,0,527,54,0,0,0
3,0,0,0,0,3,531,54,0,0,0
4,0,0,0,0,0,527,53,0,0,0
5,0,0,0,0,0,531,53,0,0,0
6,0,0,0,0,0,523,54,0,0,0
7,0,0,0,0,3,524,51,0,0,0
8,0,0,0,0,0,520,52,0,0,0
9,0,0,0,0,0,519,54,0,0,0
10,0,0,0,0,0,512,53,0,0,0
11,0,0,0,0,3,511,51,0,0,0
12,0,0,0,0,0,503,53,0,0,0
13,0,0,0,0,0,505,54,0,0,0
14,0,0,0,0,0,503,51,0,0,0
15,0,0,0,0,1,507,51,0,0,0
0,0,0,0,0,0,504,51,0,0,0
1,0,0,0,0,0,507,51,0,0,0
2,0,0,0,0,0,503,52,0,0,0
3,0,0,0,0,3,510,51,0,0,0
4,0,0,0,0,0,511,52,0,0,0
5,0,0,0,0,0,521,54,0,0,0
6,0,0,0,0,0,521,54,0,0,0
7,0,0,0,0,3,526,54,0,0,0
8,0,0,0,0,0,526,53,0,0,0
9,0,0,0,0,0,531,53,0,0,0
10,0,0,0,0,0,532,53,0,0,0
11,0,0,0,0,3,539,54,0,0,0
12,0,0,0,0,0,531,52,0,0,0
13,0,0,0,0,0,533,52,0,0,0
14,0,0,0,0,0,526,53,0,0,0
15,0,0,0,0,3,519,54,0,0,0
0,0,0,0,0,0,520,53,0,0,0
1,0,0,0,0,0,524,53,0,0,0
2,0,0,0,0,0,519,51,0,0,0
3,0,0,0,0,3,530,54,0,0,0
4,0,0,0,0,0,535,53,0,0,0
5,0,0,0,0,0,537,52,0,0,0
6,0,0,0,0,0,532,54,0,0,0
7,0,0,0,0,3,537,52,0,0,0
8,0,0,0,0,0,534,53,0,0,0
9,0,0,0,0,0,536,54,0,0,0
10,0,0,0,0,0,537,51,0,0,0
11,0,0,0,0,3,539,53,0,0,0
12,0,0,0,0,0,495,53,0,0,0
13,0,0,0,0,0,457,53,0,0,0
14,0,0,0,0,0,502,54,0,0,0
15,0,0,0,0,3,600,51,0,0,0
0,0,0,0,0,0,547,54,0,0,0
1,0,0,0,0,0,522,53,0,0,0
2,0,0,0,0,0,536,51,0,0,0
3,0,0,0,0,3,542,53,0,0,0
4,0,0,0,0,1,536,54,0,0,0
5,0,0,0,0,0,537,53,0,0,0
6,0,0,0,0,0,531,51,0,0,0
7,0,0,0,0,3,532,54,0,0,0
8,0,0,0,0,1,529,53,0,0,0
9,0,0,0,0,0,534,52,0,0,0
10,0,0,0,0,0,528,51,0,0,0
11,0,0,0,0,0,527,54,0,0,0
12,0,0,0,0,0,520,53,0,0,0
13,0,0,0,0,0,521,53,0,0,0
14,0,0,0,0,0,520,53,0,0,0
15,0,0,0,0,3,524,53,0,0,0
0,0,0,0,0,0,518,53,0,0,0
1,0,0,0,0,0,516,54,0,0,0
2,0,0,0,0,0,510,53,0,0,0
3,0,0,0,0,3,510,51,0,0,0
4,0,0,0,0,0,508,52,0,0,0
5,0,0,0,0,0,514,54,0,0,0
6,0,0,0,0,0,510,53,0,0,0
7,0,0,0,0,3,515,53,0,0,0
8,0,0,0,0,0,511,53,0,0,0
9,0,0,0,0,0,516,53,0,0,0
10,0,0,0,0,0,514,51,0,0,0
11,0,0,0,0,3,518,51,0,0,0
12,0,0,0,0,0,511,52,0,0,0
13,0,0,0,0,0,515,53,0,0,0
14,0,0,0,0,0,513,54,0,0,0
15,0,0,0,0,3,518,52,0,0,0
0,0,0,0,0,0,515,51,0,0,0
1,0,0,0,0,0,514,51,0,0,0
2,0,0,0,0,0,511,54,0,0,0
3,0,0,0,0,3,512,53,0,0,0
4,0,0,0,0,0,507,52,0,0,0
5,0,0,0,0,0,506,54,0,0,0
6,0,0,0,0,0,499,53,0,0,0
7,0,0,0,0,3,502,51,0,0,0
8,0,0,0,0,0,499,54,0,0,0
9,0,0,0,0,0,502,54,0,0,0
10,0,0,0,0,0,499,51,0,0,0
11,0,0,0,0,3,503,52,0,0,0
12,0,0,0,0,0,500,53,0,0,0
13,0,0,0,0,0,503,53,0,0,0
14,0,0,0,0,0,500,51,0,0,0
15,0,0,0,0,3,502,53,0,0,0
0,0,0,0,0,0,494,54,0,0,0
1,0,0,0,0,0,493,51,0,0,0
2,0,0,0,0,0,490,54,0,0,0
3,0,0,0,0,3,499,52,0,0,0
4,0,0,0,0,0,500,54,0,0,0
5,0,0,0,0,0,504,52,0,0,0
6,0,0,0,0,0,497,52,0,0,0
7,0,0,0,0,1,495,54,0,0,0
8,0,0,0,0,0,486,51,0,0,0
9,0,0,0,0,0,480,53,0,0,0
10,0,0,0,0,0,483,54,0,0,0
11,0,0,0,0,3,491,52,0,0,0
12,0,0,0,0,0,490,53,0,0,0
13,0,0,0,0,0,501,51,0,0,0
14,0,0,0,0,0,498,54,0,0,0
15,0,0,0,0,3,500,53,0,0,0
0,0,0,0,0,0,494,51,0,0,0
1,0,0,0,0,0,493,54,0,0,0
2,0,0,0,0,0,492,51,0,0,0
3,0,0,0,0,3,499,52,0,0,0
4,0,0,0,0,0,503,52,0,0,0
5,0,0,0,0,0,492,54,0,0,0
6,0,0,0,0,0,424,53,0,0,0
7,0,0,0,0,3,419,51,0,0,0
8,0,0,0,0,0,495,54,0,0,0
9,0,0,0,0,0,556,53,0,0,0
10,0,0,0,0,0,487,54,0,0,0
11,0,0,0,0,3,499,54,0,0,0
12,0,0,0,0,0,504,51,0,0,0
13,0,0,0,0,0,511,54,0,0,0
14,0,0,0,0,0,508,54,0,0,0
15,0,0,0,0,3,515,53,0,0,0
0,0,0,0,0,0,507,51,0,0,0
1,0,0,0,0,0,507,53,0,0,0
2,0,0,0,0,0,494,54,0,0,0
3,0,0,0,0,3,491,54,0,0,0
4,0,0,0,0,0,489,54,0,0,0
5,0,0,0,0,0,498,54,0,0,0
6,0,0,0,0,0,499,54,0,0,0
7,0,0,0,0,3,503,54,0,0,0
8,0,0,0,0,0,493,54,0,0,0
9,0,0,0,0,0,491,54,0,0,0
10,0,0,0,0,0,487,54,0,0,0
11,0,0,0,0,3,486,54,0,0,0
12,0,0,0,0,0,477,54,0,0,0
13,0,0,0,0,0,479,54,0,0,0
14,0,0,0,0,0,475,53,0,0,0
15,0,0,0,0,3,479,53,0,0,0
0,0,0,0,0,0,484,51,0,0,0
1,0,0,0,0,0,497,51,0,0,0
2,0,0,0,0,0,504,52,0,0,0
3,0,0,0,0,1,519,54,0,0,0
4,0,0,0,0,0,523,53,0,0,0
5,0,0,0,0,0,528,53,0,0,0
6,0,0,0,0,0,528,55,0,0,0
7,0,0,0,0,3,529,54,0,0,0
8,0,0,0,0,0,526,51,0,0,0
9,0,0,0,0,0,523,54,0,0,0
10,0,0,0,0,0,515,54,0,0,0
11,0,0,0,0,3,508,52,0,0,0
12,0,0,0,0,0,499,52,0,0,0
13,0,0,0,0,0,496,54,0,0,0
14,0,0,0,0,0,489,53,0,0,0
15,0,0,0,0,3,492,51,0,0,0
0,0,0,0,0,0,488,53,0,0,0
1,0,0,0,0,0,492,51,0,0,0
2,0,0,0,0,0,496,52,0,0,0
3,0,0,0,0,3,500,54,0,0,0
4,0,0,0,0,0,499,53,0,0,0
5,0,0,0,0,0,505,52,0,0,0
6,0,0,0,0,0,503,54,0,0,0
7,0,0,0,0,1,510,55,0,0,0
8,0,0,0,0,0,512,53,0,0,0
9,0,0,0,0,0,517,52,0,0,0
10,0,0,0,0,0,517,54,0,0,0
11,0,0,0,0,3,522,53,0,0,0
12,0,0,0,0,0,523,55,0,0,0
13,0,0,0,0,0,531,54,0,0,0
14,0,0,0,0,0,527,52,0,0,0
15,0,0,0,0,3,534,54,0,0,0
0,0,0,0,0,0,532,52,0,0,0
1,0,0,0,0,0,532,54,0,0,0
2,0,0,0,0,0,527,55,0,0,0
3,0,0,0,0,3,527,54,0,0,0
4,0,0,0,0,0,520,52,0,0,0
5,0,0,0,0,0,525,55,0,0,0
6,0,0,0,0,0,517,55,0,0,0
7,0,0,0,0,3,527,52,0,0,0
8,0,0,0,0,0,530,55,0,0,0
9,0,0,0,0,0,540,55,0,0,0
10,0,0,0,0,0,539,55,0,0,0
11,0,0,0,0,3,547,52,0,0,0
12,0,0,0,0,0,546,54,0,0,0
13,0,0,0,0,0,554,55,0,0,0
14,0,0,0,0,0,545,54,0,0,0
15,0,0,0,0,3,542,54,0,0,0
0,0,0,0,0,0,538,55,0,0,0
1,0,0,0,0,0,548,52,0,0,0
2,0,0,0,0,0,539,55,0,0,0
3,0,0,0,0,3,477,54,0,0,0
4,0,0,0,0,0,458,55,0,0,0
5,0,0,0,0,0,539,53,0,0,0
6,0,0,0,0,0,592,56,0,0,0
7,0,0,0,0,3,522,56,0,0,0
8,0,0,0,0,0,524,53,0,0,0
9,0,0,0,0,0,540,54,0,0,0
10,0,0,0,0,0,540,56,0,0,0
11,0,0,0,0,3,547,56,0,0,0
12,0,0,0,0,0,538,55,0,0,0
13,0,0,0,0,0,538,53,0,0,0
14,0,0,0,0,0,531,55,0,0,0
15,0,0,0,0,3,532,56,0,0,0
0,0,0,0,0,0,524,53,0,0,0
1,0,0,0,0,0,524,55,0,0,0
2,0,0,0,0,0,518,56,0,0,0
3,0,0,0,0,0,518,55,0,0,0
4,0,0,0,0,0,515,54,0,0,0
5,0,0,0,0,0,517,56,0,0,0
6,0,0,0,0,0,516,54,0,0,0
7,0,0,0,0,3,518,54,0,0,0
8,0,0,0,0,0,512,56,0,0,0
9,0,0,0,0,0,515,56,0,0,0
10,0,0,0,0,0,512,55,0,0,0
11,0,0,0,0,3,510,54,0,0,0
12,0,0,0,0,0,511,56,0,0,0
13,0,0,0,0,0,519,57,0,0,0
14,0,0,0,0,0,527,56,0,0,0
15,0,0,0,0,3,539,54,0,0,0
0,0,0,0,0,0,542,57,0,0,0
1,0,0,0,0,0,543,57,0,0,0
2,0,0,0,0,0,540,54,0,0,0
3,0,0,0,0,3,544,55,0,0,0
4,0,0,0,0,0,542,57,0,0,0
5,0,0,0,0,0,544,57,0,0,0
6,0,0,0,0,0,538,57,0,0,0
7,0,0,0,0,3,540,56,0,0,0
8,0,0,0,0,0,535,55,0,0,0
9,0,0,0,0,0,536,57,0,0,0
10,0,0,0,0,0,529,57,0,0,0
11,0,0,0,0,3,530,57,0,0,0
12,0,0,0,0,0,526,55,0,0,0
13,0,0,0,0,0,528,57,0,0,0
14,0,0,0,0,0,521,57,0,0,0
15,0,0,0,0,3,527,55,0,0,0
0,0,0,0,0,0,524,56,0,0,0
1,0,0,0,0,0,523,57,0,0,0
2,0,0,0,0,0,514,57,0,0,0
3,0,0,0,0,3,521,57,0,0,0
4,0,0,0,0,0,521,56,0,0,0
5,0,0,0,0,0,520,58,0,0,0
6,0,0,0,0,0,516,58,0,0,0
7,0,0,0,0,3,516,57,0,0,0
8,0,0,0,0,0,514,57,0,0,0
9,0,0,0,0,0,520,56,0,0,0
10,0,0,0,0,0,518,56,0,0,0
11,0,0,0,0,3,520,56,0,0,0
12,0,0,0,0,0,513,56,0,0,0
13,0,0,0,0,0,511,57,0,0,0
14,0,0,0,0,0,504,57,0,0,0
15,0,0,0,0,0,509,58,0,0,0
0,0,0,0,0,0,502,59,0,0,0
1,0,0,0,0,0,507,59,0,0,0
2,0,0,0,0,0,504,59,0,0,0
3,0,0,0,0,3,503,56,0,0,0
4,0,0,0,0,0,505,57,0,0,0
5,0,0,0,0,0,511,57,0,0,0
6,0,0,0,0,0,508,59,0,0,0
7,0,0,0,0,3,514,58,0,0,0
8,0,0,0,0,0,512,60,0,0,0
9,0,0,0,0,0,515,59,0,0,0
10,0,0,0,0,0,510,59,0,0,0
11,0,0,0,0,3,514,60,0,0,0
12,0,0,0,0,0,506,59,0,0,0
13,0,0,0,0,0,505,60,0,0,0
14,0,0,0,0,0,502,58,0,0,0
15,0,0,0,0,3,504,60,0,0,0
0,0,0,0,0,0,505,58,0,0,0
1,0,0,0,0,0,516,60,0,0,0
2,0,0,0,0,0,518,58,0,0,0
3,0,0,0,0,3,523,60,0,0,0
4,0,0,0,0,0,520,57,0,0,0
5,0,0,0,0,0,524,60,0,0,0
6,0,0,0,0,0,521,59,0,0,0
7,0,0,0,0,3,515,59,0,0,0
8,0,0,0,0,0,517,59,0,0,0
9,0,0,0,0,0,515,60,0,0,0
10,0,0,0,0,0,464,60,0,0,0
11,0,0,0,0,3,433,60,0,0,0
12,0,0,0,0,0,476,59,0,0,0
13,0,0,0,0,0,568,60,0,0,0
14,0,0,0,0,0,500,60,0,0,0
15,0,0,0,0,3,483,60,0,0,0
0,0,0,0,0,0,494,60,0,0,0
1,0,0,0,0,0,505,59,0,0,0
2,0,0,0,0,0,513,60,0,0,0
3,0,0,0,0,3,522,59,0,0,0
4,0,0,0,0,0,524,60,0,0,0
5,0,0,0,0,0,531,61,0,0,0
6,0,0,0,0,0,528,60,0,0,0
7,0,0,0,0,3,533,59,0,0,0
8,0,0,0,0,0,533,60,0,0,0
9,0,0,0,0,0,536,60,0,0,0
10,0,0,0,0,0,536,59,0,0,0
11,0,0,0,0,1,539,59,0,0,0
12,0,0,0,0,0,531,60,0,0,0
13,0,0,0,0,0,534,60,0,0,0
14,0,0,0,0,0,527,58,0,0,0
15,0,0,0,0,3,524,61,0,0,0
0,0,0,0,0,0,512,59,0,0,0
1,0,0,0,0,0,510,61,0,0,0
2,0,0,0,0,0,503,59,0,0,0
3,0,0,0,0,3,506,61,0,0,0
4,0,0,0,0,0,504,60,0,0,0
5,0,0,0,0,0,515,60,0,0,0
6,0,0,0,0,0,524,59,0,0,0
7,0,0,0,0,3,535,61,0,0,0
8,0,0,0,0,0,534,61,0,0,0
9,0,0,0,0,0,537,59,0,0,0
10,0,0,0,0,0,529,62,0,0,0
11,0,0,0,0,3,535,59,0,0,0
12,0,0,0,0,0,526,61,0,0,0
13,0,0,0,0,0,524,59,0,0,0
14,0,0,0,0,0,515,62,0,0,0
15,0,0,0,0,3,515,60,0,0,0
0,0,0,0,0,0,511,61,0,0,0
1,0,0,0,0,0,516,59,0,0,0
2,0,0,0,0,0,513,61,0,0,0
3,0,0,0,0,3,514,60,0,0,0
4,0,0,0,0,0,511,61,0,0,0
5,0,0,0,0,0,515,61,0,0,0
6,0,0,0,0,0,508,61,0,0,0
7,0,0,0,0,3,511,59,0,0,0
8,0,0,0,0,0,508,61,0,0,0
9,0,0,0,0,0,510,61,0,0,0
10,0,0,0,0,0,510,60,0,0,0
11,0,0,0,0,3,514,61,0,0,0
12,0,0,0,0,0,513,60,0,0,0
13,0,0,0,0,0,513,62,0,0,0
14,0,0,0,0,0,513,62,0,0,0
15,0,0,0,0,3,519,61,0,0,0
0,0,0,0,0,0,520,59,0,0,0
1,0,0,0,0,0,522,60,0,0,0
2,0,0,0,0,0,519,60,0,0,0
3,0,0,0,0,3,518,62,0,0,0
4,0,0,0,0,0,513,61,0,0,0
5,0,0,0,0,0,512,59,0,0,0
6,0,0,0,0,0,511,62,0,0,0
7,0,0,0,0,1,514,59,0,0,0
8,0,0,0,0,0,508,60,0,0,0
9,0,0,0,0,0,513,61,0,0,0
10,0,0,0,0,0,511,61,0,0,0
11,0,0,0,0,3,512,61,0,0,0
12,0,0,0,0,0,508,61,0,0,0
13,0,0,0,0,0,509,59,0,0,0
14,0,0,0,0,0,509,62,0,0,0
15,0,0,0,0,3,511,59,0,0,0
0,0,0,0,0,0,503,62,0,0,0
1,0,0,0,0,0,505,61,0,0,0
2,0,0,0,0,0,496,61,0,0,0
3,0,0,0,0,3,497,59,0,0,0
4,0,0,0,0,0,489,61,0,0,0
5,0,0,0,0,0,486,59,0,0,0
6,0,0,0,0,0,490,62,0,0,0
7,0,0,0,0,3,502,61,0,0,0
8,0,0,0,0,0,506,62,0,0,0
9,0,0,0,0,0,520,61,0,0,0
10,0,0,0,0,0,526,59,0,0,0
11,0,0,0,0,3,525,62,0,0,0
12,0,0,0,0,0,521,60,0,0,0
13,0,0,0,0,0,524,62,0,0,0
14,0,0,0,0,0,516,61,0,0,0
15,0,0,0,0,3,519,61,0,0,0
0,0,0,0,0,0,519,61,0,0,0
1,0,0,0,0,0,513,60,0,0,0
2,0,0,0,0,0,455,61,0,0,0
3,0,0,0,0,3,428,61,0,0,0
4,0,0,0,0,0,497,60,0,0,0
5,0,0,0,0,0,588,61,0,0,0
6,0,0,0,0,0,510,59,0,0,0
7,0,0,0,0,3,506,61,0,0,0
8,0,0,0,0,0,519,62,0,0,0
9,0,0,0,0,0,528,59,0,0,0
10,0,0,0,0,0,521,61,0,0,0
11,0,0,0,0,3,519,61,0,0,0
12,0,0,0,0,0,514,62,0,0,0
13,0,0,0,0,0,515,59,0,0,0
14,0,0,0,0,0,512,61,0,0,0
15,0,0,0,0,3,515,60,0,0,0
0,0,0,0,0,0,510,62,0,0,0
1,0,0,0,0,0,511,59,0,0,0
2,0,0,0,0,0,505,61,0,0,0
3,0,0,0,0,1,508,59,0,0,0
4,0,0,0,0,0,507,62,0,0,0
5,0,0,0,0,0,513,62,0,0,0
6,0,0,0,0,0,508,62,0,0,0
7,0,0,0,0,3,507,62,0,0,0
8,0,0,0,0,0,497,61,0,0,0
9,0,0,0,0,0,496,60,0,0,0
10,0,0,0,0,0,490,62,0,0,0
11,0,0,0,0,3,495,62,0,0,0
12,0,0,0,0,0,492,60,0,0,0
13,0,0,0,0,0,504,59,0,0,0
14,0,0,0,0,0,509,60,0,0,0
15,0,0,0,0,3,515,59,0,0,0
0,0,0,0,0,0,519,59,0,0,0
1,0,0,0,0,0,526,59,0,0,0
2,0,0,0,0,0,527,59,0,0,0
3,0,0,0,0,3,530,60,0,0,0
4,0,0,0,0,0,524,60,0,0,0
5,0,0,0,0,0,523,61,0,0,0
6,0,0,0,0,0,518,62,0,0,0
7,0,0,0,0,3,520,62,0,0,0
8,0,0,0,0,0,516,61,0,0,0
9,0,0,0,0,0,521,59,0,0,0
10,0,0,0,0,0,515,61,0,0,0
11,0,0,0,0,3,516,60,0,0,0
12,0,0,0,0,0,513,62,0,0,0
13,0,0,0,0,0,518,62,0,0,0
14,0,0,0,0,0,518,61,0,0,0
15,0,0,0,0,3,520,59,0,0,0
0,0,0,0,0,0,511,59,0,0,0
1,0,0,0,0,0,514,59,0,0,0
2,0,0,0,0,0,506,59,0,0,0
3,0,0,0,0,3,505,60,0,0,0
4,0,0,0,0,0,496,60,0,0,0
5,0,0,0,0,0,495,61,0,0,0
6,0,0,0,0,0,495,62,0,0,0
7,0,0,0,0,3,496,61,0,0,0
8,0,0,0,0,0,492,60,0,0,0
9,0,0,0,0,0,495,60,0,0,0
10,0,0,0,0,0,492,61,0,0,0
11,0,0,0,0,3,494,59,0,0,0
12,0,0,0,0,0,488,61,0,0,0
13,0,0,0,0,0,488,62,0,0,0
14,0,0,0,0,0,484,61,0,0,0
15,0,0,0,0,0,486,61,0,0,0
0,0,0,0,0,0,486,61,0,0,0
1,0,0,0,0,0,487,60,0,0,0
2,0,0,0,0,0,486,60,0,0,0
3,0,0,0,0,3,487,62,0,0,0
4,0,0,0,0,0,481,61,0,0,0
5,0,0,0,0,0,477,59,0,0,0
6,0,0,0,0,0,471,62,0,0,0
7,0,0,0,0,3,473,61,0,0,0
8,0,0,0,0,0,466,60,0,0,0
9,0,0,0,0,0,461,59,0,0,0
10,0,0,0,0,0,460,61,0,0,0
11,0,0,0,0,3,461,61,0,0,0
12,0,0,0,0,0,459,60,0,0,0
13,0,0,0,0,0,475,59,0,0,0
14,0,0,0,0,0,481,62,0,0,0
15,0,0,0,0,3,489,60,0,0,0
0,0,0,0,0,0,487,59,0,0,0
1,0,0,0,0,0,494,59,0,0,0
2,0,0,0,0,0,494,59,0,0,0
3,0,0,0,0,1,502,59,0,0,0
4,0,0,0,0,0,508,59,0,0,0
5,0,0,0,0,0,503,60,0,0,0
6,0,0,0,0,0,447,59,0,0,0
7,0,0,0,0,3,435,60,0,0,0
8,0,0,0,0,0,497,59,0,0,0
9,0,0,0,0,0,581,62,0,0,0
10,0,0,0,0,0,508,60,0,0,0
11,0,0,0,0,3,498,61,0,0,0
12,0,0,0,0,0,513,59,0,0,0
13,0,0,0,0,0,521,60,0,0,0
14,0,0,0,0,0,518,60,0,0,0
15,0,0,0,0,3,519,60,0,0,0
0,0,0,0,0,0,512,60,0,0,0
1,0,0,0,0,0,516,62,0,0,0
2,0,0,0,0,0,511,62,0,0,0
3,0,0,0,0,3,516,61,0,0,0
4,0,0,0,0,0,510,59,0,0,0
5,0,0,0,0,0,511,61,0,0,0
6,0,0,0,0,0,505,62,0,0,0
7,0,0,0,0,3,512,61,0,0,0
8,0,0,0,0,0,510,60,0,0,0
9,0,0,0,0,0,507,61,0,0,0
10,0,0,0,0,0,501,61,0,0,0
11,0,0,0,0,3,500,59,0,0,0
12,0,0,0,0,0,495,60,0,0,0
13,0,0,0,0,0,498,60,0,0,0
14,0,0,0,0,0,493,60,0,0,0
15,0,0,0,0,3,495,61,0,0,0
0,0,0,0,0,0,492,61,0,0,0
1,0,0,0,0,0,502,59,0,0,0
2,0,0,0,0,0,508,60,0,0,0
3,0,0,0,0,3,522,62,0,0,0
4,0,0,0,0,0,525,61,0,0,0
5,0,0,0,0,0,529,61,0,0,0
6,0,0,0,0,0,528,61,0,0,0
7,0,0,0,0,3,526,61,0,0,0
8,0,0,0,0,0,518,61,0,0,0
9,0,0,0,0,0,516,62,0,0,0
10,0,0,0,0,0,510,61,0,0,0
11,0,0,0,0,3,510,61,0,0,0
12,0,0,0,0,0,502,59,0,0,0
13,0,0,0,0,0,504,59,0,0,0
14,0,0,0,0,0,496,61,0,0,0
15,0,0,0,0,0,499,61,0,0,0
0,0,0,0,0,0,492,61,0,0,0
1,0,0,0,0,0,499,60,0,0,0
2,0,0,0,0,0,501,59,0,0,0
3,0,0,0,0,3,502,60,0,0,0
4,0,0,0,0,0,498,61,0,0,0
5,0,0,0,0,0,497,60,0,0,0
6,0,0,0,0,0,494,59,0,0,0
7,0,0,0,0,3,498,59,0,0,0
8,0,0,0,0,0,494,61,0,0,0
9,0,0,0,0,0,498,61,0,0,0
10,0,0,0,0,0,501,59,0,0,0
11,0,0,0,0,3,508,59,0,0,0
12,0,0,0,0,0,504,59,0,0,0
13,0,0,0,0,0,507,60,0,0,0
14,0,0,0,0,0,504,61,0,0,0
15,0,0,0,0,3,508,61,0,0,0
0,0,0,0,0,0,500,59,0,0,0
1,0,0,0,0,0,502,60,0,0,0
2,0,0,0,0,0,499,61,0,0,0
3,0,0,0,0,3,500,61,0,0,0
4,0,0,0,0,0,500,61,0,0,0
5,0,0,0,0,0,505,61,0,0,0
6,0,0,0,0,1,500,61,0,0,0
7,0,0,0,0,3,500,60,0,0,0
8,0,0,0,0,0,489,58,0,0,0
9,0,0,0,0,0,498,60,0,0,0
10,0,0,0,0,0,493,61,0,0,0
11,0,0,0,0,3,503,61,0,0,0
12,0,0,0,0,0,505,61,0,0,0
13,0,0,0,0,0,512,60,0,0,0
14,0,0,0,0,0,512,59,0,0,0
15,0,0,0,0,3,516,59,0,0,0
0,0,0,0,0,0,515,61,0,0,0
1,0,0,0,0,0,518,59,0,0,0
2,0,0,0,0,0,514,60,0,0,0
3,0,0,0,0,3,522,61,0,0,0
4,0,0,0,0,0,505,59,0,0,0
5,0,0,0,0,0,446,61,0,0,0
6,0,0,0,0,0,452,60,0,0,0
7,0,0,0,0,3,532,61,0,0,0
8,0,0,0,0,0,575,59,0,0,0
9,0,0,0,0,0,513,60,0,0,0
10,0,0,0,0,0,515,61,0,0,0
11,0,0,0,0,1,526,61,0,0,0
12,0,0,0,0,0,528,61,0,0,0
13,0,0,0,0,0,532,61,0,0,0
14,0,0,0,0,0,530,59,0,0,0
15,0,0,0,0,3,537,59,0,0,0
0,0,0,0,0,0,539,61,0,0,0
1,0,0,0,0,0,544,61,0,0,0
2,0,0,0,0,0,539,61,0,0,0
3,0,0,0,0,3,537,61,0,0,0
4,0,0,0,0,0,529,61,0,0,0
5,0,0,0,0,0,528,61,0,0,0
6,0,0,0,0,0,524,59,0,0,0
7,0,0,0,0,3,526,61,0,0,0
8,0,0,0,0,0,515,61,0,0,0
9,0,0,0,0,0,515,60,0,0,0
10,0,0,0,0,0,510,60,0,0,0
11,0,0,0,0,3,509,61,0,0,0
12,0,0,0,0,0,508,58,0,0,0
13,0,0,0,0,0,512,59,0,0,0
14,0,0,0,0,0,515,59,0,0,0
15,0,0,0,0,3,522,59,0,0,0
0,0,0,0,0,0,526,59,0,0,0
1,0,0,0,0,0,539,62,0,0,0
2,0,0,0,0,0,543,61,0,0,0
3,0,0,0,0,3,551,61,0,0,0
4,0,0,0,0,0,551,60,0,0,0
5,0,0,0,0,0,551,58,0,0,0
6,0,0,0,0,0,545,59,0,0,0
7,0,0,0,0,3,539,58,0,0,0
8,0,0,0,0,0,532,59,0,0,0
9,0,0,0,0,0,532,61,0,0,0
10,0,0,0,0,0,528,61,0,0,0
11,0,0,0,0,3,526,61,0,0,0
12,0,0,0,0,0,516,61,0,0,0
13,0,0,0,0,0,517,61,0,0,0
14,0,0,0,0,0,512,59,0,0,0
15,0,0,0,0,3,509,61,0,0,0
0,0,0,0,0,0,507,61,0,0,0
1,0,0,0,0,0,512,59,0,0,0
2,0,0,0,0,0,507,61,0,0,0
3,0,0,0,0,3,510,59,0,0,0
4,0,0,0,0,0,504,61,0,0,0
5,0,0,0,0,0,506,59,0,0,0
6,0,0,0,0,0,504,61,0,0,0
7,0,0,0,0,1,505,59,0,0,0
8,0,0,0,0,0,497,61,0,0,0
9,0,0,0,0,0,500,61,0,0,0
10,0,0,0,0,0,495,59,0,0,0
11,0,0,0,0,3,502,60,0,0,0
12,0,0,0,0,0,505,61,0,0,0
13,0,0,0,0,0,509,59,0,0,0
14,0,0,0,0,0,510,61,0,0,0
15,0,0,0,0,3,515,58,0,0,0
0,0,0,0,0,0,510,60,0,0,0
1,0,0,0,0,0,513,61,0,0,0
2,0,0,0,0,0,512,59,0,0,0
3,0,0,0,0,3,516,59,0,0,0
4,0,0,0,0,0,507,60,0,0,0
5,0,0,0,0,0,506,61,0,0,0
6,0,0,0,0,0,498,61,0,0,0
7,0,0,0,0,3,503,61,0,0,0
8,0,0,0,0,0,494,60,0,0,0
9,0,0,0,0,0,496,60,0,0,0
10,0,0,0,0,0,494,59,0,0,0
11,0,0,0,0,3,501,58,0,0,0
12,0,0,0,0,0,510,60,0,0,0
13,0,0,0,0,0,521,61,0,0,0
14,0,0,0,0,0,520,61,0,0,0
15,0,0,0,0,3,521,61,0,0,0
0,0,0,0,0,0,516,60,0,0,0
1,0,0,0,0,0,516,60,0,0,0
2,0,0,0,0,0,513,61,0,0,0
3,0,0,0,0,3,519,61,0,0,0
4,0,0,0,0,0,515,59,0,0,0
5,0,0,0,0,0,482,60,0,0,0
6,0,0,0,0,0,440,60,0,0,0
7,0,0,0,0,3,486,61,0,0,0
8,0,0,0,0,0,573,61,0,0,0
9,0,0,0,0,0,527,59,0,0,0
10,0,0,0,0,0,505,60,0,0,0
11,0,0,0,0,3,525,61,0,0,0
12,0,0,0,0,0,524,60,0,0,0
13,0,0,0,0,0,526,59,0,0,0
14,0,0,0,0,0,519,61,0,0,0
15,0,0,0,0,3,523,61,0,0,0
0,0,0,0,0,0,519,58,0,0,0
1,0,0,0,0,0,521,60,0,0,0
2,0,0,0,0,0,515,60,0,0,0
3,0,0,0,0,0,514,61,0,0,0
4,0,0,0,0,0,512,59,0,0,0
5,0,0,0,0,0,514,61,0,0,0
6,0,0,0,0,0,512,61,0,0,0
7,0,0,0,0,3,512,61,0,0,0
8,0,0,0,0,0,504,60,0,0,0
9,0,0,0,0,0,504,58,0,0,0
10,0,0,0,0,0,499,62,0,0,0
11,0,0,0,0,3,503,61,0,0,0
12,0,0,0,0,0,494,60,0,0,0
13,0,0,0,0,0,497,59,0,0,0
14,0,0,0,0,0,489,59,0,0,0
15,0,0,0,0,3,498,61,0,0,0
0,0,0,0,0,0,502,59,0,0,0
1,0,0,0,0,0,510,61,0,0,0
2,0,0,0,0,0,519,61,0,0,0
3,0,0,0,0,3,528,60,0,0,0
4,0,0,0,0,0,530,61,0,0,0
5,0,0,0,0,0,533,61,0,0,0
6,0,0,0,0,0,527,60,0,0,0
7,0,0,0,0,3,523,61,0,0,0
8,0,0,0,0,0,517,60,0,0,0
9,0,0,0,0,0,516,61,0,0,0
10,0,0,0,0,0,511,61,0,0,0
11,0,0,0,0,3,513,60,0,0,0
12,0,0,0,0,0,509,58,0,0,0
13,0,0,0,0,0,513,59,0,0,0
14,0,0,0,0,0,512,60,0,0,0
15,0,0,0,0,3,515,59,0,0,0
0,0,0,0,0,0,513,61,0,0,0
1,0,0,0,0,0,514,61,0,0,0
2,0,0,0,0,0,511,60,0,0,0
3,0,0,0,0,3,508,59,0,0,0
4,0,0,0,0,0,505,58,0,0,0
5,0,0,0,0,0,509,60,0,0,0
6,0,0,0,0,0,506,59,0,0,0
7,0,0,0,0,3,511,61,0,0,0
8,0,0,0,0,0,510,61,0,0,0
9,0,0,0,0,0,510,59,0,0,0
10,0,0,0,0,0,504,61,0,0,0
11,0,0,0,0,3,509,61,0,0,0
12,0,0,0,0,0,507,60,0,0,0
13,0,0,0,0,0,515,59,0,0,0
14,0,0,0,0,0,511,61,0,0,0
15,0,0,0,0,0,511,60,0,0,0
0,0,0,0,0,0,508,60,0,0,0
1,0,0,0,0,0,514,59,0,0,0
2,0,0,0,0,0,512,60,0,0,0
3,0,0,0,0,3,512,59,0,0,0
4,0,0,0,0,0,510,61,0,0,0
5,0,0,0,0,0,510,61,0,0,0
6,0,0,0,0,0,508,59,0,0,0
7,0,0,0,0,3,514,61,0,0,0
8,0,0,0,0,0,515,60,0,0,0
9,0,0,0,0,0,513,59,0,0,0
10,0,0,0,0,0,509,59,0,0,0
11,0,0,0,0,3,511,60,0,0,0
12,0,0,0,0,0,501,61,0,0,0
13,0,0,0,0,0,505,59,0,0,0
14,0,0,0,0,0,500,59,0,0,0
15,0,0,0,0,3,509,61,0,0,0
0,0,0,0,0,0,514,61,0,0,0
1,0,0,0,0,0,524,60,0,0,0
2,0,0,0,0,0,521,61,0,0,0
3,0,0,0,0,3,520,58,0,0,0
4,0,0,0,0,0,514,60,0,0,0
5,0,0,0,0,0,516,60,0,0,0
6,0,0,0,0,0,514,59,0,0,0
7,0,0,0,0,3,521,61,0,0,0
8,0,0,0,0,0,513,60,0,0,0
9,0,0,0,0,0,458,59,0,0,0
10,0,0,0,0,0,424,59,0,0,0
11,0,0,0,0,3,486,61,0,0,0
12,0,0,0,0,0,560,61,0,0,0
13,0,0,0,0,0,494,58,0,0,0
14,0,0,0,0,0,489,60,0,0,0
15,0,0,0,0,3,506,60,0,0,0
0,0,0,0,0,0,505,61,0,0,0
1,0,0,0,0,0,509,61,0,0,0
2,0,0,0,0,0,506,61,0,0,0
3,0,0,0,0,3,507,60,0,0,0
4,0,0,0,0,0,501,59,0,0,0
5,0,0,0,0,0,506,59,0,0,0
6,0,0,0,0,0,505,58,0,0,0
7,0,0,0,0,3,504,59,0,0,0
8,0,0,0,0,1,500,58,0,0,0
9,0,0,0,0,0,503,59,0,0,0
10,0,0,0,0,0,496,59,0,0,0
11,0,0,0,0,1,496,60,0,0,0
12,0,0,0,0,0,494,61,0,0,0
13,0,0,0,0,0,493,61,0,0,0
14,0,0,0,0,0,486,60,0,0,0
15,0,0,0,0,3,484,60,0,0,0
0,0,0,0,0,0,478,61,0,0,0
1,0,0,0,0,0,484,60,0,0,0
2,0,0,0,0,0,482,60,0,0,0
3,0,0,0,0,3,487,60,0,0,0
4,0,0,0,0,0,492,59,0,0,0
5,0,0,0,0,0,509,58,0,0,0
6,0,0,0,0,0,517,58,0,0,0
7,0,0,0,0,3,531,58,0,0,0
8,0,0,0,0,0,533,60,0,0,0
9,0,0,0,0,0,539,61,0,0,0
10,0,0,0,0,0,537,61,0,0,0
11,0,0,0,0,3,536,61,0,0,0
12,0,0,0,0,0,529,60,0,0,0
13,0,0,0,0,0,532,59,0,0,0
14,0,0,0,0,0,529,59,0,0,0
15,0,0,0,0,1,530,59,0,0,0
0,0,0,0,0,0,529,61,0,0,0
1,0,0,0,0,0,527,61,0,0,0
2,0,0,0,0,0,523,61,0,0,0
3,0,0,0,0,3,521,60,0,0,0
4,0,0,0,0,0,516,58,0,0,0
5,0,0,0,0,0,517,59,0,0,0
6,0,0,0,0,0,513,60,0,0,0
7,0,0,0,0,3,516,61,0,0,0
8,0,0,0,0,0,514,60,0,0,0
9,0,0,0,0,0,512,60,0,0,0
10,0,0,0,0,0,508,58,0,0,0
11,0,0,0,0,3,510,59,0,0,0
12,0,0,0,0,0,505,59,0,0,0
13,0,0,0,0,0,506,61,0,0,0
14,0,0,0,0,0,504,60,0,0,0
15,0,0,0,0,3,510,59,0,0,0
0,0,0,0,0,0,507,58,0,0,0
1,0,0,0,0,0,504,60,0,0,0
2,0,0,0,0,0,503,61,0,0,0
3,0,0,0,0,3,505,59,0,0,0
4,0,0,0,0,0,508,59,0,0,0
5,0,0,0,0,0,509,60,0,0,0
6,0,0,0,0,0,509,61,0,0,0
7,0,0,0,0,3,517,60,0,0,0
8,0,0,0,0,0,513,59,0,0,0
9,0,0,0,0,0,513,61,0,0,0
10,0,0,0,0,0,510,60,0,0,0
11,0,0,0,0,3,512,58,0,0,0
12,0,0,0,0,0,511,60,0,0,0
13,0,0,0,0,0,509,59,0,0,0
14,0,0,0,0,0,504,58,0,0,0
15,0,0,0,0,3,508,60,0,0,0
0,0,0,0,0,0,502,61,0,0,0
1,0,0,0,0,0,500,59,0,0,0
2,0,0,0,0,0,496,59,0,0,0
3,0,0,0,0,3,496,60,0,0,0
4,0,0,0,0,0,497,60,0,0,0
5,0,0,0,0,0,499,59,0,0,0
6,0,0,0,0,0,503,59,0,0,0
7,0,0,0,0,3,515,58,0,0,0
8,0,0,0,0,0,517,59,0,0,0
9,0,0,0,0,0,519,59,0,0,0
10,0,0,0,0,0,514,60,0,0,0
11,0,0,0,0,1,514,59,0,0,0
12,0,0,0,0,0,511,57,0,0,0
13,0,0,0,0,0,517,59,0,0,0
14,0,0,0,0,0,513,59,0,0,0
15,0,0,0,0,3,494,60,0,0,0
0,0,0,0,0,0,429,60,0,0,0
1,0,0,0,0,0,451,60,0,0,0
2,0,0,0,0,0,539,60,0,0,0
3,0,0,0,0,3,540,60,0,0,0
4,0,0,0,0,0,488,60,0,0,0
5,0,0,0,0,0,511,59,0,0,0
6,0,0,0,0,0,513,58,0,0,0
7,0,0,0,0,3,518,58,0,0,0
8,0,0,0,0,0,515,60,0,0,0
9,0,0,0,0,0,518,60,0,0,0
10,0,0,0,0,0,511,60,0,0,0
11,0,0,0,0,3,508,58,0,0,0
12,0,0,0,0,0,505,58,0,0,0
