0,1,2,3,4,5,6,7,8,9,10
15,0,0,0,0,3,500,57,0,0,0
0,0,0,0,0,0,508,58,0,0,0
1,0,0,0,0,0,510,58,0,0,0
2,0,0,0,0,0,520,58,0,0,0
3,0,0,0,0,3,521,55,0,0,0
4,0,0,0,0,0,521,56,0,0,0
5,0,0,0,0,0,519,57,0,0,0
6,0,0,0,0,0,518,58,0,0,0
7,0,0,0,0,3,514,56,0,0,0
8,0,0,0,0,0,518,56,0,0,0
9,0,0,0,0,0,519,58,0,0,0
10,0,0,0,0,0,520,58,0,0,0
11,0,0,0,0,3,520,57,0,0,0
12,0,0,0,0,0,523,57,0,0,0
13,0,0,0,0,0,523,58,0,0,0
14,0,0,0,0,0,520,56,0,0,0
15,0,0,0,0,1,516,58,0,0,0
0,0,0,0,0,0,522,58,0,0,0
1,0,0,0,0,0,520,56,0,0,0
2,0,0,0,0,0,524,59,0,0,0
3,0,0,0,0,3,519,58,0,0,0
4,0,0,0,0,0,521,57,0,0,0
5,0,0,0,0,0,520,56,0,0,0
6,0,0,0,0,0,521,58,0,0,0
7,0,0,0,0,3,519,56,0,0,0
8,0,0,0,0,0,522,56,0,0,0
9,0,0,0,0,0,518,58,0,0,0
10,0,0,0,0,0,518,59,0,0,0
11,0,0,0,0,3,515,56,0,0,0
12,0,0,0,0,0,516,56,0,0,0
13,0,0,0,0,0,517,57,0,0,0
14,0,0,0,0,0,519,58,0,0,0
15,0,0,0,0,3,515,58,0,0,0
0,0,0,0,0,0,515,56,0,0,0
1,0,0,0,0,0,510,56,0,0,0
2,0,0,0,0,0,511,58,0,0,0
3,0,0,0,0,3,501,57,0,0,0
4,0,0,0,0,0,505,56,0,0,0
5,0,0,0,0,0,507,57,0,0,0
6,0,0,0,0,0,516,57,0,0,0
7,0,0,0,0,3,523,56,0,0,0
8,0,0,0,0,0,532,58,0,0,0
9,0,0,0,0,0,530,58,0,0,0
10,0,0,0,0,0,529,56,0,0,0
11,0,0,0,0,3,528,56,0,0,0
12,0,0,0,0,0,529,58,0,0,0
13,0,0,0,0,0,527,58,0,0,0
14,0,0,0,0,0,530,58,0,0,0
15,0,0,0,0,3,521,59,0,0,0
0,0,0,0,0,0,488,58,0,0,0
1,0,0,0,0,0,442,56,0,0,0
2,0,0,0,0,0,487,58,0,0,0
3,0,0,0,0,3,569,59,0,0,0
4,0,0,0,0,0,515,56,0,0,0
5,0,0,0,0,0,498,57,0,0,0
6,0,0,0,0,0,518,58,0,0,0
7,0,0,0,0,3,519,58,0,0,0
8,0,0,0,0,0,521,59,0,0,0
9,0,0,0,0,0,516,57,0,0,0
10,0,0,0,0,0,517,56,0,0,0
11,0,0,0,0,1,511,56,0,0,0
12,0,0,0,0,0,511,58,0,0,0
13,0,0,0,0,0,504,59,0,0,0
14,0,0,0,0,0,505,56,0,0,0
15,0,0,0,0,3,502,58,0,0,0
0,0,0,0,0,0,505,59,0,0,0
1,0,0,0,0,0,499,59,0,0,0
2,0,0,0,0,0,499,59,0,0,0
3,0,0,0,0,3,498,56,0,0,0
4,0,0,0,0,0,500,57,0,0,0
5,0,0,0,0,0,498,58,0,0,0
6,0,0,0,0,0,499,59,0,0,0
7,0,0,0,0,3,496,58,0,0,0
8,0,0,0,0,0,500,56,0,0,0
9,0,0,0,0,0,497,57,0,0,0
10,0,0,0,0,0,499,58,0,0,0
11,0,0,0,0,3,503,59,0,0,0
12,0,0,0,0,0,515,56,0,0,0
13,0,0,0,0,0,519,59,0,0,0
14,0,0,0,0,0,526,57,0,0,0
15,0,0,0,0,3,524,59,0,0,0
0,0,0,0,0,0,524,57,0,0,0
1,0,0,0,0,0,520,58,0,0,0
2,0,0,0,0,0,521,56,0,0,0
3,0,0,0,0,3,515,58,0,0,0
4,0,0,0,0,0,516,57,0,0,0
5,0,0,0,0,0,517,57,0,0,0
6,0,0,0,0,0,519,59,0,0,0
7,0,0,0,0,3,518,57,0,0,0
8,0,0,0,0,0,519,57,0,0,0
9,0,0,0,0,0,516,59,0,0,0
10,0,0,0,0,0,521,56,0,0,0
11,0,0,0,0,3,518,59,0,0,0
12,0,0,0,0,0,518,58,0,0,0
13,0,0,0,0,0,516,57,0,0,0
14,0,0,0,0,0,519,56,0,0,0
15,0,0,0,0,3,514,56,0,0,0
0,0,0,0,0,0,511,56,0,0,0
1,0,0,0,0,0,507,59,0,0,0
2,0,0,0,0,0,507,59,0,0,0
3,0,0,0,0,3,502,58,0,0,0
4,0,0,0,0,0,502,59,0,0,0
5,0,0,0,0,0,500,59,0,0,0
6,0,0,0,0,0,507,58,0,0,0
7,0,0,0,0,1,505,56,0,0,0
8,0,0,0,0,0,507,57,0,0,0
9,0,0,0,0,0,508,59,0,0,0
10,0,0,0,0,0,510,57,0,0,0
11,0,0,0,0,3,512,59,0,0,0
12,0,0,0,0,0,510,59,0,0,0
13,0,0,0,0,0,504,59,0,0,0
14,0,0,0,0,0,507,58,0,0,0
15,0,0,0,0,3,496,56,0,0,0
0,0,0,0,0,0,498,56,0,0,0
1,0,0,0,0,0,500,58,0,0,0
2,0,0,0,0,0,505,59,0,0,0
3,0,0,0,0,3,514,58,0,0,0
4,0,0,0,0,0,526,59,0,0,0
5,0,0,0,0,0,527,59,0,0,0
6,0,0,0,0,0,531,59,0,0,0
7,0,0,0,0,3,524,59,0,0,0
8,0,0,0,0,0,521,58,0,0,0
9,0,0,0,0,0,518,56,0,0,0
10,0,0,0,0,0,519,57,0,0,0
11,0,0,0,0,0,523,56,0,0,0
12,0,0,0,0,0,507,59,0,0,0
13,0,0,0,0,0,447,59,0,0,0
14,0,0,0,0,0,471,58,0,0,0
15,0,0,0,0,3,563,58,0,0,0
0,0,0,0,0,0,552,56,0,0,0
1,0,0,0,0,0,506,56,0,0,0
2,0,0,0,0,0,521,57,0,0,0
3,0,0,0,0,3,524,59,0,0,0
4,0,0,0,0,0,523,58,0,0,0
5,0,0,0,0,0,519,56,0,0,0
6,0,0,0,0,0,519,59,0,0,0
7,0,0,0,0,3,516,59,0,0,0
8,0,0,0,0,0,517,59,0,0,0
9,0,0,0,0,0,515,57,0,0,0
10,0,0,0,0,0,517,56,0,0,0
11,0,0,0,0,3,517,56,0,0,0
12,0,0,0,0,0,518,57,0,0,0
13,0,0,0,0,0,510,58,0,0,0
14,0,0,0,0,0,511,57,0,0,0
15,0,0,0,0,3,504,57,0,0,0
0,0,0,0,0,0,502,59,0,0,0
1,0,0,0,0,0,498,59,0,0,0
2,0,0,0,0,0,495,59,0,0,0
3,0,0,0,0,3,491,57,0,0,0
4,0,0,0,0,0,491,56,0,0,0
5,0,0,0,0,0,486,58,0,0,0
6,0,0,0,0,0,482,59,0,0,0
7,0,0,0,0,3,483,59,0,0,0
8,0,0,0,0,0,494,59,0,0,0
9,0,0,0,0,0,504,56,0,0,0
10,0,0,0,0,0,514,59,0,0,0
11,0,0,0,0,3,515,59,0,0,0
12,0,0,0,0,0,517,56,0,0,0
13,0,0,0,0,0,513,56,0,0,0
14,0,0,0,0,0,509,57,0,0,0
15,0,0,0,0,3,504,59,0,0,0
0,0,0,0,0,0,504,59,0,0,0
1,0,0,0,0,0,499,59,0,0,0
2,0,0,0,0,0,500,58,0,0,0
3,0,0,0,0,3,497,56,0,0,0
4,0,0,0,0,0,499,59,0,0,0
5,0,0,0,0,0,497,59,0,0,0
6,0,0,0,0,0,498,59,0,0,0
7,0,0,0,0,0,497,57,0,0,0
8,0,0,0,0,0,502,56,0,0,0
9,0,0,0,0,0,504,57,0,0,0
10,0,0,0,0,0,508,59,0,0,0
11,0,0,0,0,3,507,59,0,0,0
12,0,0,0,0,0,512,57,0,0,0
13,0,0,0,0,0,511,56,0,0,0
14,0,0,0,0,0,515,57,0,0,0
15,0,0,0,0,3,515,58,0,0,0
0,0,0,0,0,0,515,59,0,0,0
1,0,0,0,0,0,516,59,0,0,0
2,0,0,0,0,0,515,57,0,0,0
3,0,0,0,0,3,514,58,0,0,0
4,0,0,0,0,0,515,59,0,0,0
5,0,0,0,0,0,510,59,0,0,0
6,0,0,0,0,0,507,57,0,0,0
7,0,0,0,0,3,499,57,0,0,0
8,0,0,0,0,0,494,56,0,0,0
9,0,0,0,0,0,496,56,0,0,0
10,0,0,0,0,0,499,59,0,0,0
11,0,0,0,0,3,500,59,0,0,0
12,0,0,0,0,0,515,56,0,0,0
13,0,0,0,0,0,517,59,0,0,0
14,0,0,0,0,0,514,59,0,0,0
15,0,0,0,0,3,512,57,0,0,0
0,0,0,0,0,0,514,56,0,0,0
1,0,0,0,0,0,511,57,0,0,0
2,0,0,0,0,0,511,59,0,0,0
3,0,0,0,0,3,513,56,0,0,0
4,0,0,0,0,0,513,58,0,0,0
5,0,0,0,0,0,473,59,0,0,0
6,0,0,0,0,0,444,57,0,0,0
7,0,0,0,0,3,497,56,0,0,0
8,0,0,0,0,0,590,56,0,0,0
9,0,0,0,0,0,526,57,0,0,0
10,0,0,0,0,0,502,57,0,0,0
11,0,0,0,0,3,511,56,0,0,0
12,0,0,0,0,0,518,56,0,0,0
13,0,0,0,0,0,516,57,0,0,0
14,0,0,0,0,0,516,59,0,0,0
15,0,0,0,0,3,512,58,0,0,0
0,0,0,0,0,0,515,56,0,0,0
1,0,0,0,0,0,513,58,0,0,0
2,0,0,0,0,0,516,58,0,0,0
3,0,0,0,0,0,512,59,0,0,0
4,0,0,0,0,0,512,58,0,0,0
5,0,0,0,0,0,505,56,0,0,0
6,0,0,0,0,0,506,58,0,0,0
7,0,0,0,0,3,501,56,0,0,0
8,0,0,0,0,0,502,58,0,0,0
9,0,0,0,0,0,498,59,0,0,0
10,0,0,0,0,0,503,56,0,0,0
11,0,0,0,0,3,500,58,0,0,0
12,0,0,0,0,0,499,59,0,0,0
13,0,0,0,0,0,497,58,0,0,0
14,0,0,0,0,0,500,56,0,0,0
15,0,0,0,0,3,501,59,0,0,0
0,0,0,0,0,0,513,56,0,0,0
1,0,0,0,0,0,523,58,0,0,0
2,0,0,0,0,0,535,58,0,0,0
3,0,0,0,0,3,537,56,0,0,0
4,0,0,0,0,0,539,59,0,0,0
5,0,0,0,0,0,531,57,0,0,0
6,0,0,0,0,0,528,59,0,0,0
7,0,0,0,0,3,525,56,0,0,0
8,0,0,0,0,0,524,59,0,0,0
9,0,0,0,0,0,519,56,0,0,0
10,0,0,0,0,0,522,58,0,0,0
11,0,0,0,0,3,520,59,0,0,0
12,0,0,0,0,0,520,56,0,0,0
13,0,0,0,0,0,519,58,0,0,0
14,0,0,0,0,0,520,58,0,0,0
15,0,0,0,0,3,515,57,0,0,0
0,0,0,0,0,0,517,57,0,0,0
1,0,0,0,0,0,513,58,0,0,0
2,0,0,0,0,0,517,56,0,0,0
3,0,0,0,0,3,514,58,0,0,0
4,0,0,0,0,0,513,58,0,0,0
5,0,0,0,0,0,511,56,0,0,0
6,0,0,0,0,0,512,57,0,0,0
7,0,0,0,0,3,509,59,0,0,0
8,0,0,0,0,0,508,56,0,0,0
9,0,0,0,0,0,504,58,0,0,0
10,0,0,0,0,0,505,56,0,0,0
11,0,0,0,0,3,501,58,0,0,0
12,0,0,0,0,0,501,56,0,0,0
13,0,0,0,0,0,498,58,0,0,0
14,0,0,0,0,0,495,57,0,0,0
15,0,0,0,0,1,486,57,0,0,0
0,0,0,0,0,0,494,58,0,0,0
1,0,0,0,0,0,492,56,0,0,0
2,0,0,0,0,0,503,58,0,0,0
3,0,0,0,0,3,509,58,0,0,0
4,0,0,0,0,0,515,56,0,0,0
5,0,0,0,0,0,510,58,0,0,0
6,0,0,0,0,0,515,59,0,0,0
7,0,0,0,0,3,514,56,0,0,0
8,0,0,0,0,0,515,56,0,0,0
9,0,0,0,0,0,517,58,0,0,0
10,0,0,0,0,0,522,56,0,0,0
11,0,0,0,0,3,502,58,0,0,0
12,0,0,0,0,0,442,58,0,0,0
13,0,0,0,0,0,455,57,0,0,0
14,0,0,0,0,0,542,56,0,0,0
15,0,0,0,0,3,558,58,0,0,0
0,0,0,0,0,0,504,58,0,0,0
1,0,0,0,0,0,512,56,0,0,0
2,0,0,0,0,0,519,58,0,0,0
3,0,0,0,0,3,514,58,0,0,0
4,0,0,0,0,0,512,58,0,0,0
5,0,0,0,0,0,507,58,0,0,0
6,0,0,0,0,0,507,57,0,0,0
7,0,0,0,0,3,507,59,0,0,0
8,0,0,0,0,0,510,57,0,0,0
9,0,0,0,0,0,507,58,0,0,0
10,0,0,0,0,0,506,56,0,0,0
11,0,0,0,0,3,503,58,0,0,0
12,0,0,0,0,0,503,58,0,0,0
13,0,0,0,0,0,497,56,0,0,0
14,0,0,0,0,0,493,56,0,0,0
15,0,0,0,0,3,493,56,0,0,0
0,0,0,0,0,0,494,57,0,0,0
1,0,0,0,0,0,491,58,0,0,0
2,0,0,0,0,0,493,56,0,0,0
3,0,0,0,0,3,490,59,0,0,0
4,0,0,0,0,0,493,56,0,0,0
5,0,0,0,0,0,497,58,0,0,0
6,0,0,0,0,0,506,59,0,0,0
7,0,0,0,0,3,509,57,0,0,0
8,0,0,0,0,0,518,58,0,0,0
9,0,0,0,0,0,520,57,0,0,0
10,0,0,0,0,0,526,56,0,0,0
11,0,0,0,0,0,524,56,0,0,0
12,0,0,0,0,0,530,56,0,0,0
13,0,0,0,0,0,526,56,0,0,0
14,0,0,0,0,0,525,57,0,0,0
15,0,0,0,0,3,524,58,0,0,0
0,0,0,0,0,0,523,57,0,0,0
1,0,0,0,0,0,520,57,0,0,0
2,0,0,0,0,0,523,59,0,0,0
3,0,0,0,0,3,516,56,0,0,0
4,0,0,0,0,0,520,58,0,0,0
5,0,0,0,0,0,516,57,0,0,0
6,0,0,0,0,0,519,57,0,0,0
7,0,0,0,0,3,517,59,0,0,0
8,0,0,0,0,0,516,56,0,0,0
9,0,0,0,0,0,512,58,0,0,0
10,0,0,0,0,0,513,58,0,0,0
11,0,0,0,0,3,513,56,0,0,0
12,0,0,0,0,0,519,56,0,0,0
13,0,0,0,0,0,518,57,0,0,0
14,0,0,0,0,0,521,58,0,0,0
15,0,0,0,0,3,517,58,0,0,0
0,0,0,0,0,0,517,56,0,0,0
1,0,0,0,0,0,509,56,0,0,0
2,0,0,0,0,0,511,57,0,0,0
3,0,0,0,0,3,507,58,0,0,0
4,0,0,0,0,0,499,56,0,0,0
5,0,0,0,0,0,500,57,0,0,0
6,0,0,0,0,0,502,58,0,0,0
7,0,0,0,0,3,506,56,0,0,0
8,0,0,0,0,0,519,59,0,0,0
9,0,0,0,0,0,525,57,0,0,0
10,0,0,0,0,0,528,56,0,0,0
11,0,0,0,0,3,527,59,0,0,0
12,0,0,0,0,0,526,57,0,0,0
13,0,0,0,0,0,522,56,0,0,0
14,0,0,0,0,0,523,59,0,0,0
15,0,0,0,0,3,524,56,0,0,0
0,0,0,0,0,0,518,58,0,0,0
1,0,0,0,0,0,461,56,0,0,0
2,0,0,0,0,0,447,58,0,0,0
3,0,0,0,0,3,513,56,0,0,0
4,0,0,0,0,0,585,58,0,0,0
5,0,0,0,0,0,512,58,0,0,0
6,0,0,0,0,0,515,57,0,0,0
7,0,0,0,0,0,521,59,0,0,0
8,0,0,0,0,0,519,57,0,0,0
9,0,0,0,0,0,510,56,0,0,0
10,0,0,0,0,0,512,59,0,0,0
11,0,0,0,0,3,514,56,0,0,0
12,0,0,0,0,1,513,58,0,0,0
13,0,0,0,0,0,510,56,0,0,0
14,0,0,0,0,0,512,59,0,0,0
15,0,0,0,0,3,505,56,0,0,0
0,0,0,0,0,0,503,58,0,0,0
1,0,0,0,0,0,500,57,0,0,0
2,0,0,0,0,0,497,59,0,0,0
3,0,0,0,0,3,492,56,0,0,0
4,0,0,0,0,0,491,58,0,0,0
5,0,0,0,0,0,482,56,0,0,0
6,0,0,0,0,0,482,56,0,0,0
7,0,0,0,0,3,476,58,0,0,0
8,0,0,0,0,0,476,58,0,0,0
9,0,0,0,0,0,474,56,0,0,0
10,0,0,0,0,0,480,58,0,0,0
11,0,0,0,0,3,485,58,0,0,0
12,0,0,0,0,0,495,58,0,0,0
13,0,0,0,0,0,503,58,0,0,0
14,0,0,0,0,0,513,59,0,0,0
15,0,0,0,0,3,514,58,0,0,0
0,0,0,0,0,0,515,59,0,0,0
1,0,0,0,0,0,510,56,0,0,0
2,0,0,0,0,0,507,59,0,0,0
3,0,0,0,0,3,500,58,0,0,0
4,0,0,0,0,0,501,58,0,0,0
5,0,0,0,0,0,496,58,0,0,0
6,0,0,0,0,0,501,57,0,0,0
7,0,0,0,0,3,498,58,0,0,0
8,0,0,0,0,0,499,59,0,0,0
9,0,0,0,0,0,496,56,0,0,0
10,0,0,0,0,0,498,58,0,0,0
11,0,0,0,0,3,496,56,0,0,0
12,0,0,0,0,0,499,59,0,0,0
13,0,0,0,0,0,497,56,0,0,0
14,0,0,0,0,0,500,58,0,0,0
15,0,0,0,0,3,500,56,0,0,0
0,0,0,0,0,0,504,59,0,0,0
1,0,0,0,0,0,500,57,0,0,0
2,0,0,0,0,0,502,56,0,0,0
3,0,0,0,0,0,498,58,0,0,0
4,0,0,0,0,0,503,56,0,0,0
5,0,0,0,0,0,504,57,0,0,0
6,0,0,0,0,0,500,57,0,0,0
7,0,0,0,0,3,499,57,0,0,0
8,0,0,0,0,0,501,58,0,0,0
9,0,0,0,0,0,496,57,0,0,0
10,0,0,0,0,0,497,57,0,0,0
11,0,0,0,0,3,496,56,0,0,0
12,0,0,0,0,0,489,59,0,0,0
13,0,0,0,0,0,492,56,0,0,0
14,0,0,0,0,0,498,58,0,0,0
15,0,0,0,0,3,503,58,0,0,0
0,0,0,0,0,0,517,59,0,0,0
1,0,0,0,0,0,519,56,0,0,0
2,0,0,0,0,0,523,56,0,0,0
3,0,0,0,0,3,523,57,0,0,0
4,0,0,0,0,0,527,58,0,0,0
5,0,0,0,0,0,527,57,0,0,0
6,0,0,0,0,0,527,56,0,0,0
7,0,0,0,0,0,526,58,0,0,0
8,0,0,0,0,0,519,58,0,0,0
9,0,0,0,0,0,464,58,0,0,0
10,0,0,0,0,0,431,56,0,0,0
11,0,0,0,0,3,483,57,0,0,0
12,0,0,0,0,0,568,59,0,0,0
13,0,0,0,0,0,493,56,0,0,0
14,0,0,0,0,0,494,59,0,0,0
15,0,0,0,0,3,507,57,0,0,0
0,0,0,0,0,0,510,57,0,0,0
1,0,0,0,0,0,506,58,0,0,0
2,0,0,0,0,0,508,56,0,0,0
3,0,0,0,0,3,503,58,0,0,0
4,0,0,0,0,0,504,57,0,0,0
5,0,0,0,0,0,499,59,0,0,0
6,0,0,0,0,0,496,58,0,0,0
7,0,0,0,0,3,495,58,0,0,0
8,0,0,0,0,0,497,57,0,0,0
9,0,0,0,0,0,497,59,0,0,0
10,0,0,0,0,0,498,57,0,0,0
11,0,0,0,0,3,497,58,0,0,0
12,0,0,0,0,0,497,56,0,0,0
13,0,0,0,0,0,492,58,0,0,0
14,0,0,0,0,0,492,56,0,0,0
15,0,0,0,0,3,489,59,0,0,0
0,0,0,0,0,0,496,56,0,0,0
1,0,0,0,0,0,492,59,0,0,0
2,0,0,0,0,0,491,56,0,0,0
3,0,0,0,0,3,492,59,0,0,0
4,0,0,0,0,0,502,56,0,0,0
5,0,0,0,0,0,508,59,0,0,0
6,0,0,0,0,0,521,57,0,0,0
7,0,0,0,0,3,526,59,0,0,0
8,0,0,0,0,0,528,56,0,0,0
9,0,0,0,0,0,524,57,0,0,0
10,0,0,0,0,0,525,58,0,0,0
11,0,0,0,0,3,523,56,0,0,0
12,0,0,0,0,0,525,59,0,0,0
13,0,0,0,0,0,522,56,0,0,0
14,0,0,0,0,0,522,58,0,0,0
15,0,0,0,0,3,522,56,0,0,0
0,0,0,0,0,0,522,59,0,0,0
1,0,0,0,0,0,516,56,0,0,0
2,0,0,0,0,0,517,59,0,0,0
3,0,0,0,0,1,515,58,0,0,0
4,0,0,0,0,0,516,58,0,0,0
5,0,0,0,0,0,511,57,0,0,0
6,0,0,0,0,0,514,59,0,0,0
7,0,0,0,0,3,513,56,0,0,0
8,0,0,0,0,0,517,58,0,0,0
9,0,0,0,0,0,518,56,0,0,0
10,0,0,0,0,0,521,59,0,0,0
11,0,0,0,0,3,519,57,0,0,0
12,0,0,0,0,0,528,58,0,0,0
13,0,0,0,0,0,526,56,0,0,0
14,0,0,0,0,0,529,59,0,0,0
15,0,0,0,0,3,527,57,0,0,0
0,0,0,0,0,0,531,59,0,0,0
1,0,0,0,0,0,527,56,0,0,0
2,0,0,0,0,0,529,56,0,0,0
3,0,0,0,0,3,525,56,0,0,0
4,0,0,0,0,0,526,59,0,0,0
5,0,0,0,0,0,525,57,0,0,0
6,0,0,0,0,0,523,58,0,0,0
7,0,0,0,0,3,519,59,0,0,0
8,0,0,0,0,0,519,56,0,0,0
9,0,0,0,0,0,514,58,0,0,0
10,0,0,0,0,0,512,59,0,0,0
11,0,0,0,0,3,508,58,0,0,0
12,0,0,0,0,0,503,57,0,0,0
13,0,0,0,0,0,497,57,0,0,0
14,0,0,0,0,0,503,59,0,0,0
15,0,0,0,0,3,505,56,0,0,0
0,0,0,0,0,0,520,58,0,0,0
1,0,0,0,0,0,529,59,0,0,0
2,0,0,0,0,0,534,59,0,0,0
3,0,0,0,0,3,531,56,0,0,0
4,0,0,0,0,0,529,57,0,0,0
5,0,0,0,0,0,530,59,0,0,0
6,0,0,0,0,0,531,57,0,0,0
7,0,0,0,0,3,530,56,0,0,0
8,0,0,0,0,0,531,59,0,0,0
9,0,0,0,0,0,495,57,0,0,0
10,0,0,0,0,0,446,56,0,0,0
11,0,0,0,0,3,481,59,0,0,0
12,0,0,0,0,0,575,58,0,0,0
13,0,0,0,0,0,525,56,0,0,0
14,0,0,0,0,0,504,59,0,0,0
15,0,0,0,0,0,517,56,0,0,0
0,0,0,0,0,0,522,57,0,0,0
1,0,0,0,0,0,518,59,0,0,0
2,0,0,0,0,0,519,58,0,0,0
3,0,0,0,0,3,517,59,0,0,0
4,0,0,0,0,0,519,59,0,0,0
5,0,0,0,0,0,517,56,0,0,0
6,0,0,0,0,0,518,59,0,0,0
7,0,0,0,0,3,511,57,0,0,0
8,0,0,0,0,0,511,59,0,0,0
9,0,0,0,0,0,509,57,0,0,0
10,0,0,0,0,0,508,59,0,0,0
11,0,0,0,0,3,505,56,0,0,0
12,0,0,0,0,0,505,58,0,0,0
13,0,0,0,0,0,497,59,0,0,0
14,0,0,0,0,0,491,56,0,0,0
15,0,0,0,0,3,486,58,0,0,0
0,0,0,0,0,0,485,56,0,0,0
1,0,0,0,0,0,487,58,0,0,0
2,0,0,0,0,0,490,59,0,0,0
3,0,0,0,0,3,491,58,0,0,0
4,0,0,0,0,0,501,56,0,0,0
5,0,0,0,0,0,508,59,0,0,0
6,0,0,0,0,0,521,59,0,0,0
7,0,0,0,0,3,524,56,0,0,0
8,0,0,0,0,0,529,59,0,0,0
9,0,0,0,0,0,529,57,0,0,0
10,0,0,0,0,0,530,59,0,0,0
11,0,0,0,0,3,526,58,0,0,0
12,0,0,0,0,0,524,57,0,0,0
13,0,0,0,0,0,519,58,0,0,0
14,0,0,0,0,0,525,56,0,0,0
15,0,0,0,0,3,523,58,0,0,0
0,0,0,0,0,0,523,59,0,0,0
1,0,0,0,0,0,524,56,0,0,0
2,0,0,0,0,0,524,59,0,0,0
3,0,0,0,0,3,518,57,0,0,0
4,0,0,0,0,0,520,58,0,0,0
5,0,0,0,0,0,518,57,0,0,0
6,0,0,0,0,0,518,59,0,0,0
7,0,0,0,0,3,515,58,0,0,0
8,0,0,0,0,0,517,56,0,0,0
9,0,0,0,0,0,515,59,0,0,0
10,0,0,0,0,0,519,59,0,0,0
11,0,0,0,0,0,516,56,0,0,0
12,0,0,0,0,0,518,58,0,0,0
13,0,0,0,0,0,513,58,0,0,0
14,0,0,0,0,0,512,59,0,0,0
15,0,0,0,0,3,507,58,0,0,0
0,0,0,0,0,0,508,58,0,0,0
1,0,0,0,0,0,507,57,0,0,0
2,0,0,0,0,0,512,57,0,0,0
3,0,0,0,0,3,512,57,0,0,0
4,0,0,0,0,0,515,56,0,0,0
5,0,0,0,0,0,514,56,0,0,0
6,0,0,0,0,0,516,58,0,0,0
7,0,0,0,0,3,513,58,0,0,0
8,0,0,0,0,0,515,56,0,0,0
9,0,0,0,0,0,517,59,0,0,0
10,0,0,0,0,0,518,56,0,0,0
11,0,0,0,0,3,517,58,0,0,0
12,0,0,0,0,0,522,56,0,0,0
13,0,0,0,0,0,516,59,0,0,0
14,0,0,0,0,0,514,57,0,0,0
15,0,0,0,0,3,506,58,0,0,0
0,0,0,0,0,0,503,57,0,0,0
1,0,0,0,0,0,497,56,0,0,0
2,0,0,0,0,0,494,59,0,0,0
3,0,0,0,0,3,494,57,0,0,0
4,0,0,0,0,0,499,58,0,0,0
5,0,0,0,0,0,498,56,0,0,0
6,0,0,0,0,0,507,58,0,0,0
7,0,0,0,0,3,513,59,0,0,0
8,0,0,0,0,0,514,56,0,0,0
9,0,0,0,0,0,513,58,0,0,0
10,0,0,0,0,0,512,58,0,0,0
11,0,0,0,0,3,509,58,0,0,0
12,0,0,0,0,0,515,57,0,0,0
13,0,0,0,0,0,521,58,0,0,0
14,0,0,0,0,0,524,59,0,0,0
15,0,0,0,0,3,487,58,0,0,0
0,0,0,0,0,0,446,57,0,0,0
1,0,0,0,0,0,487,58,0,0,0
2,0,0,0,0,0,592,58,0,0,0
3,0,0,0,0,3,541,56,0,0,0
4,0,0,0,0,0,509,58,0,0,0
5,0,0,0,0,0,523,57,0,0,0
6,0,0,0,0,0,526,58,0,0,0
7,0,0,0,0,0,521,57,0,0,0
8,0,0,0,0,0,524,58,0,0,0
9,0,0,0,0,0,521,58,0,0,0
10,0,0,0,0,0,523,57,0,0,0
11,0,0,0,0,3,519,59,0,0,0
12,0,0,0,0,0,521,56,0,0,0
13,0,0,0,0,0,516,58,0,0,0
14,0,0,0,0,0,516,57,0,0,0
15,0,0,0,0,3,507,59,0,0,0
0,0,0,0,0,0,505,58,0,0,0
1,0,0,0,0,0,503,57,0,0,0
2,0,0,0,0,0,502,56,0,0,0
3,0,0,0,0,3,500,58,0,0,0
4,0,0,0,0,0,499,56,0,0,0
5,0,0,0,0,0,493,58,0,0,0
6,0,0,0,0,0,492,56,0,0,0
7,0,0,0,0,3,487,59,0,0,0
8,0,0,0,0,0,489,57,0,0,0
9,0,0,0,0,0,488,56,0,0,0
10,0,0,0,0,0,496,59,0,0,0
11,0,0,0,0,3,497,57,0,0,0
12,0,0,0,0,0,509,58,0,0,0
13,0,0,0,0,0,518,58,0,0,0
14,0,0,0,0,0,526,57,0,0,0
15,0,0,0,0,3,528,59,0,0,0
0,0,0,0,0,0,526,56,0,0,0
1,0,0,0,0,0,521,59,0,0,0
2,0,0,0,0,0,521,57,0,0,0
3,0,0,0,0,3,519,56,0,0,0
4,0,0,0,0,0,521,56,0,0,0
5,0,0,0,0,0,518,58,0,0,0
6,0,0,0,0,0,520,56,0,0,0
7,0,0,0,0,3,517,58,0,0,0
8,0,0,0,0,0,519,56,0,0,0
9,0,0,0,0,0,517,56,0,0,0
10,0,0,0,0,0,518,57,0,0,0
11,0,0,0,0,3,515,59,0,0,0
12,0,0,0,0,0,518,56,0,0,0
13,0,0,0,0,0,515,59,0,0,0
14,0,0,0,0,0,518,56,0,0,0
15,0,0,0,0,3,516,59,0,0,0
0,0,0,0,0,0,516,56,0,0,0
1,0,0,0,0,0,518,58,0,0,0
2,0,0,0,0,0,518,56,0,0,0
3,0,0,0,0,0,511,58,0,0,0
4,0,0,0,0,0,513,56,0,0,0
5,0,0,0,0,0,514,59,0,0,0
6,0,0,0,0,0,517,56,0,0,0
7,0,0,0,0,3,517,57,0,0,0
8,0,0,0,0,0,521,58,0,0,0
9,0,0,0,0,0,515,58,0,0,0
10,0,0,0,0,0,517,56,0,0,0
11,0,0,0,0,3,513,58,0,0,0
12,0,0,0,0,0,515,57,0,0,0
13,0,0,0,0,0,515,58,0,0,0
14,0,0,0,0,0,519,57,0,0,0
15,0,0,0,0,3,512,59,0,0,0
0,0,0,0,0,0,508,57,0,0,0
1,0,0,0,0,0,503,56,0,0,0
2,0,0,0,0,0,502,58,0,0,0
3,0,0,0,0,3,504,57,0,0,0
4,0,0,0,0,0,511,59,0,0,0
5,0,0,0,0,0,507,56,0,0,0
6,0,0,0,0,0,519,58,0,0,0
7,0,0,0,0,3,522,56,0,0,0
8,0,0,0,0,0,527,58,0,0,0
9,0,0,0,0,0,520,58,0,0,0
10,0,0,0,0,0,520,56,0,0,0
11,0,0,0,0,3,514,59,0,0,0
12,0,0,0,0,0,515,56,0,0,0
13,0,0,0,0,0,512,58,0,0,0
14,0,0,0,0,0,510,57,0,0,0
15,0,0,0,0,3,482,58,0,0,0
0,0,0,0,0,0,442,58,0,0,0
1,0,0,0,0,0,480,58,0,0,0
2,0,0,0,0,0,575,59,0,0,0
3,0,0,0,0,3,543,57,0,0,0
4,0,0,0,0,0,505,56,0,0,0
5,0,0,0,0,0,519,57,0,0,0
6,0,0,0,0,0,527,59,0,0,0
7,0,0,0,0,3,520,57,0,0,0
8,0,0,0,0,0,519,58,0,0,0
9,0,0,0,0,0,518,58,0,0,0
10,0,0,0,0,0,517,56,0,0,0
11,0,0,0,0,3,514,57,0,0,0
12,0,0,0,0,0,512,57,0,0,0
13,0,0,0,0,0,502,58,0,0,0
14,0,0,0,0,0,502,56,0,0,0
15,0,0,0,0,0,499,59,0,0,0
0,0,0,0,0,0,502,58,0,0,0
1,0,0,0,0,0,498,56,0,0,0
2,0,0,0,0,0,494,58,0,0,0
3,0,0,0,0,3,489,58,0,0,0
4,0,0,0,0,0,487,57,0,0,0
5,0,0,0,0,0,477,56,0,0,0
6,0,0,0,0,0,479,58,0,0,0
7,0,0,0,0,3,475,57,0,0,0
8,0,0,0,0,0,481,58,0,0,0
9,0,0,0,0,0,481,56,0,0,0
10,0,0,0,0,0,491,59,0,0,0
11,0,0,0,0,3,500,56,0,0,0
12,0,0,0,0,0,512,58,0,0,0
13,0,0,0,0,0,515,57,0,0,0
14,0,0,0,0,0,521,59,0,0,0
15,0,0,0,0,3,522,56,0,0,0
0,0,0,0,0,0,524,57,0,0,0
1,0,0,0,0,0,521,59,0,0,0
2,0,0,0,0,0,523,58,0,0,0
3,0,0,0,0,0,517,58,0,0,0
4,0,0,0,0,0,517,57,0,0,0
5,0,0,0,0,0,508,58,0,0,0
6,0,0,0,0,0,510,57,0,0,0
7,0,0,0,0,3,506,58,0,0,0
8,0,0,0,0,0,505,58,0,0,0
9,0,0,0,0,0,503,58,0,0,0
10,0,0,0,0,0,504,57,0,0,0
11,0,0,0,0,3,503,57,0,0,0
12,0,0,0,0,0,508,57,0,0,0
13,0,0,0,0,0,508,59,0,0,0
14,0,0,0,0,0,514,56,0,0,0
15,0,0,0,0,3,510,58,0,0,0
0,0,0,0,0,0,510,56,0,0,0
1,0,0,0,0,0,506,56,0,0,0
2,0,0,0,0,0,507,59,0,0,0
3,0,0,0,0,3,505,57,0,0,0
4,0,0,0,0,0,507,57,0,0,0
5,0,0,0,0,0,505,57,0,0,0
6,0,0,0,0,0,510,58,0,0,0
7,0,0,0,0,3,510,59,0,0,0
8,0,0,0,0,0,511,56,0,0,0
9,0,0,0,0,0,506,59,0,0,0
10,0,0,0,0,0,507,57,0,0,0
11,0,0,0,0,3,506,59,0,0,0
12,0,0,0,0,0,506,56,0,0,0
13,0,0,0,0,0,500,58,0,0,0
14,0,0,0,0,0,499,58,0,0,0
15,0,0,0,0,3,494,56,0,0,0
0,0,0,0,0,0,487,58,0,0,0
1,0,0,0,0,0,483,58,0,0,0
2,0,0,0,0,0,480,56,0,0,0
3,0,0,0,0,3,475,58,0,0,0
4,0,0,0,0,0,483,58,0,0,0
5,0,0,0,0,0,485,57,0,0,0
6,0,0,0,0,0,489,59,0,0,0
7,0,0,0,0,3,503,56,0,0,0
8,0,0,0,0,0,514,59,0,0,0
9,0,0,0,0,0,513,57,0,0,0
10,0,0,0,0,0,513,59,0,0,0
11,0,0,0,0,3,509,56,0,0,0
12,0,0,0,0,0,512,58,0,0,0
13,0,0,0,0,0,513,56,0,0,0
14,0,0,0,0,0,522,59,0,0,0
15,0,0,0,0,1,515,57,0,0,0
0,0,0,0,0,0,471,59,0,0,0
1,0,0,0,0,0,448,57,0,0,0
2,0,0,0,0,0,510,56,0,0,0
3,0,0,0,0,3,584,58,0,0,0
4,0,0,0,0,0,515,56,0,0,0
5,0,0,0,0,0,502,58,0,0,0
6,0,0,0,0,0,519,56,0,0,0
7,0,0,0,0,3,519,56,0,0,0
8,0,0,0,0,0,518,58,0,0,0
9,0,0,0,0,0,512,57,0,0,0
10,0,0,0,0,0,513,58,0,0,0
11,0,0,0,0,3,508,58,0,0,0
12,0,0,0,0,0,507,57,0,0,0
13,0,0,0,0,0,504,58,0,0,0
14,0,0,0,0,0,505,56,0,0,0
15,0,0,0,0,3,497,58,0,0,0
0,0,0,0,0,0,503,57,0,0,0
1,0,0,0,0,0,497,58,0,0,0
2,0,0,0,0,0,499,56,0,0,0
3,0,0,0,0,3,494,59,0,0,0
4,0,0,0,0,0,493,56,0,0,0
5,0,0,0,0,0,491,58,0,0,0
6,0,0,0,0,0,492,56,0,0,0
7,0,0,0,0,3,489,58,0,0,0
8,0,0,0,0,0,496,57,0,0,0
9,0,0,0,0,0,497,58,0,0,0
10,0,0,0,0,0,504,59,0,0,0
11,0,0,0,0,3,509,56,0,0,0
12,0,0,0,0,0,523,59,0,0,0
13,0,0,0,0,0,529,56,0,0,0
14,0,0,0,0,0,537,57,0,0,0
15,0,0,0,0,3,540,59,0,0,0
0,0,0,0,0,0,545,58,0,0,0
1,0,0,0,0,0,544,56,0,0,0
2,0,0,0,0,0,545,58,0,0,0
3,0,0,0,0,3,543,59,0,0,0
4,0,0,0,0,0,545,56,0,0,0
5,0,0,0,0,0,539,58,0,0,0
6,0,0,0,0,0,536,58,0,0,0
7,0,0,0,0,3,526,56,0,0,0
8,0,0,0,0,0,526,56,0,0,0
9,0,0,0,0,0,525,57,0,0,0
10,0,0,0,0,0,527,59,0,0,0
11,0,0,0,0,0,524,56,0,0,0
12,0,0,0,0,0,525,58,0,0,0
13,0,0,0,0,0,521,58,0,0,0
14,0,0,0,0,0,524,57,0,0,0
15,0,0,0,0,3,524,58,0,0,0
0,0,0,0,0,0,525,57,0,0,0
1,0,0,0,0,0,527,58,0,0,0
2,0,0,0,0,0,534,57,0,0,0
3,0,0,0,0,3,538,59,0,0,0
4,0,0,0,0,0,544,56,0,0,0
5,0,0,0,0,0,544,58,0,0,0
6,0,0,0,0,0,545,58,0,0,0
7,0,0,0,0,3,538,56,0,0,0
8,0,0,0,0,0,540,57,0,0,0
9,0,0,0,0,0,537,59,0,0,0
10,0,0,0,0,0,538,56,0,0,0
11,0,0,0,0,3,537,58,0,0,0
12,0,0,0,0,0,534,56,0,0,0
13,0,0,0,0,0,531,59,0,0,0
14,0,0,0,0,0,526,56,0,0,0
15,0,0,0,0,3,522,59,0,0,0
0,0,0,0,0,0,524,58,0,0,0
1,0,0,0,0,0,520,56,0,0,0
2,0,0,0,0,0,519,57,0,0,0
3,0,0,0,0,3,516,59,0,0,0
4,0,0,0,0,0,513,58,0,0,0
5,0,0,0,0,0,508,58,0,0,0
6,0,0,0,0,0,506,57,0,0,0
7,0,0,0,0,3,500,59,0,0,0
8,0,0,0,0,0,504,57,0,0,0
9,0,0,0,0,0,504,58,0,0,0
10,0,0,0,0,0,513,59,0,0,0
11,0,0,0,0,3,521,56,0,0,0
12,0,0,0,0,0,528,57,0,0,0
13,0,0,0,0,0,526,59,0,0,0
14,0,0,0,0,0,527,58,0,0,0
15,0,0,0,0,3,527,58,0,0,0
0,0,0,0,0,0,528,57,0,0,0
1,0,0,0,0,0,527,59,0,0,0
2,0,0,0,0,0,524,58,0,0,0
3,0,0,0,0,3,492,58,0,0,0
4,0,0,0,0,0,448,57,0,0,0
5,0,0,0,0,0,481,58,0,0,0
6,0,0,0,0,0,568,59,0,0,0
7,0,0,0,0,0,529,56,0,0,0
8,0,0,0,0,0,496,58,0,0,0
9,0,0,0,0,0,508,58,0,0,0
10,0,0,0,0,0,514,56,0,0,0
11,0,0,0,0,3,512,58,0,0,0
12,0,0,0,0,0,511,58,0,0,0
13,0,0,0,0,0,507,58,0,0,0
14,0,0,0,0,0,507,58,0,0,0
15,0,0,0,0,3,503,59,0,0,0
0,0,0,0,0,0,503,56,0,0,0
1,0,0,0,0,0,500,58,0,0,0
2,0,0,0,0,0,503,59,0,0,0
3,0,0,0,0,3,501,56,0,0,0
4,0,0,0,0,0,499,59,0,0,0
5,0,0,0,0,0,495,56,0,0,0
6,0,0,0,0,0,492,59,0,0,0
7,0,0,0,0,3,486,57,0,0,0
8,0,0,0,0,0,483,56,0,0,0
9,0,0,0,0,0,476,58,0,0,0
10,0,0,0,0,0,474,58,0,0,0
11,0,0,0,0,3,468,56,0,0,0
12,0,0,0,0,0,471,59,0,0,0
13,0,0,0,0,0,469,56,0,0,0
14,0,0,0,0,0,482,56,0,0,0
15,0,0,0,0,3,487,59,0,0,0
0,0,0,0,0,0,498,57,0,0,0
1,0,0,0,0,0,503,58,0,0,0
2,0,0,0,0,0,507,58,0,0,0
3,0,0,0,0,3,510,56,0,0,0
4,0,0,0,0,0,517,59,0,0,0
5,0,0,0,0,0,515,56,0,0,0
6,0,0,0,0,0,515,59,0,0,0
7,0,0,0,0,3,505,57,0,0,0
8,0,0,0,0,0,505,58,0,0,0
9,0,0,0,0,0,507,57,0,0,0
10,0,0,0,0,0,513,58,0,0,0
11,0,0,0,0,3,510,56,0,0,0
12,0,0,0,0,0,510,59,0,0,0
13,0,0,0,0,0,507,56,0,0,0
14,0,0,0,0,0,511,59,0,0,0
15,0,0,0,0,3,510,56,0,0,0
0,0,0,0,0,0,512,58,0,0,0
1,0,0,0,0,0,515,57,0,0,0
2,0,0,0,0,0,512,56,0,0,0
3,0,0,0,0,0,507,59,0,0,0
4,0,0,0,0,0,505,57,0,0,0
5,0,0,0,0,0,503,58,0,0,0
6,0,0,0,0,0,507,58,0,0,0
7,0,0,0,0,3,503,58,0,0,0
8,0,0,0,0,0,501,57,0,0,0
9,0,0,0,0,0,502,59,0,0,0
10,0,0,0,0,0,504,56,0,0,0
11,0,0,0,0,3,502,59,0,0,0
12,0,0,0,0,0,505,58,0,0,0
13,0,0,0,0,0,504,57,0,0,0
14,0,0,0,0,0,508,58,0,0,0
15,0,0,0,0,3,511,58,0,0,0
0,0,0,0,0,0,515,57,0,0,0
1,0,0,0,0,0,516,58,0,0,0
2,0,0,0,0,0,521,59,0,0,0
3,0,0,0,0,3,522,56,0,0,0
4,0,0,0,0,0,520,58,0,0,0
5,0,0,0,0,0,516,57,0,0,0
6,0,0,0,0,0,513,56,0,0,0
7,0,0,0,0,3,509,59,0,0,0
8,0,0,0,0,0,507,56,0,0,0
9,0,0,0,0,0,497,57,0,0,0
10,0,0,0,0,0,496,59,0,0,0
11,0,0,0,0,3,488,57,0,0,0
12,0,0,0,0,0,481,58,0,0,0
13,0,0,0,0,0,483,59,0,0,0
14,0,0,0,0,0,488,56,0,0,0
15,0,0,0,0,3,495,58,0,0,0
0,0,0,0,0,0,506,57,0,0,0
1,0,0,0,0,0,510,58,0,0,0
2,0,0,0,0,0,513,59,0,0,0
3,0,0,0,0,3,509,58,0,0,0
4,0,0,0,0,0,513,57,0,0,0
5,0,0,0,0,0,512,57,0,0,0
6,0,0,0,0,0,513,58,0,0,0
7,0,0,0,0,3,517,56,0,0,0
8,0,0,0,0,0,504,59,0,0,0
9,0,0,0,0,0,445,57,0,0,0
10,0,0,0,0,0,456,57,0,0,0
11,0,0,0,0,3,545,59,0,0,0
12,0,0,0,0,0,560,58,0,0,0
13,0,0,0,0,0,508,56,0,0,0
14,0,0,0,0,0,524,58,0,0,0
15,0,0,0,0,1,526,59,0,0,0
0,0,0,0,0,1,525,57,0,0,0
1,0,0,0,0,0,525,57,0,0,0
2,0,0,0,0,0,520,59,0,0,0
3,0,0,0,0,3,516,59,0,0,0
4,0,0,0,0,0,518,58,0,0,0
5,0,0,0,0,0,515,58,0,0,0
6,0,0,0,0,0,512,56,0,0,0
7,0,0,0,0,3,513,57,0,0,0
8,0,0,0,0,0,515,59,0,0,0
9,0,0,0,0,0,512,56,0,0,0
10,0,0,0,0,0,512,59,0,0,0
11,0,0,0,0,3,507,57,0,0,0
12,0,0,0,0,0,504,58,0,0,0
13,0,0,0,0,0,500,56,0,0,0
14,0,0,0,0,0,502,57,0,0,0
15,0,0,0,0,3,499,59,0,0,0
0,0,0,0,0,0,502,58,0,0,0
1,0,0,0,0,0,502,59,0,0,0
2,0,0,0,0,0,500,57,0,0,0
3,0,0,0,0,3,499,56,0,0,0
4,0,0,0,0,0,507,59,0,0,0
5,0,0,0,0,0,512,56,0,0,0
6,0,0,0,0,0,524,58,0,0,0
7,0,0,0,0,3,528,58,0,0,0
8,0,0,0,0,0,534,58,0,0,0
9,0,0,0,0,0,532,58,0,0,0
10,0,0,0,0,0,533,58,0,0,0
11,0,0,0,0,3,531,57,0,0,0
12,0,0,0,0,0,534,59,0,0,0
13,0,0,0,0,0,532,57,0,0,0
14,0,0,0,0,0,531,59,0,0,0
15,0,0,0,0,3,526,58,0,0,0
0,0,0,0,0,0,529,56,0,0,0
1,0,0,0,0,0,526,58,0,0,0
2,0,0,0,0,0,526,57,0,0,0
3,0,0,0,0,3,519,58,0,0,0
4,0,0,0,0,0,515,57,0,0,0
5,0,0,0,0,0,509,58,0,0,0
6,0,0,0,0,0,511,56,0,0,0
7,0,0,0,0,3,510,58,0,0,0
8,0,0,0,0,0,515,59,0,0,0
9,0,0,0,0,0,512,59,0,0,0
10,0,0,0,0,0,518,57,0,0,0
11,0,0,0,0,1,518,58,0,0,0
12,0,0,0,0,0,521,59,0,0,0
13,0,0,0,0,0,519,56,0,0,0
14,0,0,0,0,0,522,59,0,0,0
15,0,0,0,0,3,518,57,0,0,0
0,0,0,0,0,0,516,59,0,0,0
1,0,0,0,0,0,514,56,0,0,0
2,0,0,0,0,0,517,57,0,0,0
3,0,0,0,0,3,511,58,0,0,0
4,0,0,0,0,0,512,56,0,0,0
5,0,0,0,0,0,510,59,0,0,0
6,0,0,0,0,0,512,58,0,0,0
7,0,0,0,0,3,511,57,0,0,0
8,0,0,0,0,0,516,58,0,0,0
9,0,0,0,0,0,516,57,0,0,0
10,0,0,0,0,0,518,58,0,0,0
11,0,0,0,0,3,516,59,0,0,0
12,0,0,0,0,0,519,58,0,0,0
13,0,0,0,0,0,518,58,0,0,0
14,0,0,0,0,0,519,59,0,0,0
15,0,0,0,0,1,513,56,0,0,0
0,0,0,0,0,0,512,59,0,0,0
1,0,0,0,0,0,512,56,0,0,0
2,0,0,0,0,0,509,58,0,0,0
3,0,0,0,0,3,497,56,0,0,0
4,0,0,0,0,0,501,57,0,0,0
5,0,0,0,0,0,500,59,0,0,0
6,0,0,0,0,0,505,56,0,0,0
7,0,0,0,0,3,509,58,0,0,0
8,0,0,0,0,0,520,59,0,0,0
9,0,0,0,0,0,520,57,0,0,0
10,0,0,0,0,0,522,59,0,0,0
11,0,0,0,0,3,517,56,0,0,0
12,0,0,0,0,0,514,58,0,0,0
13,0,0,0,0,0,515,57,0,0,0
14,0,0,0,0,0,526,59,0,0,0
15,0,0,0,0,3,512,59,0,0,0
0,0,0,0,0,0,444,56,0,0,0
1,0,0,0,0,0,441,58,0,0,0
2,0,0,0,0,0,525,59,0,0,0
3,0,0,0,0,3,560,57,0,0,0
4,0,0,0,0,0,499,58,0,0,0
5,0,0,0,0,0,499,59,0,0,0
6,0,0,0,0,0,507,57,0,0,0
7,0,0,0,0,3,501,59,0,0,0
8,0,0,0,0,0,500,56,0,0,0
9,0,0,0,0,0,501,58,0,0,0
10,0,0,0,0,0,502,58,0,0,0
11,0,0,0,0,3,497,59,0,0,0
12,0,0,0,0,0,504,56,0,0,0
13,0,0,0,0,0,504,59,0,0,0
14,0,0,0,0,0,505,57,0,0,0
15,0,0,0,0,3,501,59,0,0,0
0,0,0,0,0,0,502,57,0,0,0
1,0,0,0,0,0,496,59,0,0,0
2,0,0,0,0,0,490,57,0,0,0
3,0,0,0,0,3,472,58,0,0,0
4,0,0,0,0,0,447,57,0,0,0
5,0,0,0,0,0,447,56,0,0,0
6,0,0,0,0,0,444,59,0,0,0
7,0,0,0,0,3,442,56,0,0,0
8,0,0,0,0,0,443,59,0,0,0
9,0,0,0,0,0,440,58,0,0,0
10,0,0,0,0,0,451,57,0,0,0
11,0,0,0,0,0,471,57,0,0,0
12,0,0,0,0,0,491,58,0,0,0
13,0,0,0,0,0,503,59,0,0,0
14,0,0,0,0,0,509,56,0,0,0
15,0,0,0,0,3,510,59,0,0,0
0,0,0,0,0,0,519,56,0,0,0
1,0,0,0,0,0,512,59,0,0,0
2,0,0,0,0,0,505,57,0,0,0
3,0,0,0,0,3,508,56,0,0,0
4,0,0,0,0,0,512,58,0,0,0
5,0,0,0,0,0,513,56,0,0,0
6,0,0,0,0,0,524,59,0,0,0
7,0,0,0,0,3,530,58,0,0,0
8,0,0,0,0,0,545,57,0,0,0
9,0,0,0,0,0,535,59,0,0,0
10,0,0,0,0,0,524,59,0,0,0
11,0,0,0,0,3,507,57,0,0,0
12,0,0,0,0,0,497,58,0,0,0
13,0,0,0,0,0,502,58,0,0,0
14,0,0,0,0,0,515,59,0,0,0
15,0,0,0,0,3,509,59,0,0,0
0,0,0,0,0,0,503,56,0,0,0
1,0,0,0,0,0,512,57,0,0,0
2,0,0,0,0,0,520,59,0,0,0
3,0,0,0,0,3,536,58,0,0,0
4,0,0,0,0,0,542,57,0,0,0
5,0,0,0,0,0,544,58,0,0,0
6,0,0,0,0,0,556,59,0,0,0
7,0,0,0,0,3,554,61,0,0,0
8,0,0,0,0,0,543,59,0,0,0
9,0,0,0,0,0,529,61,0,0,0
10,0,0,0,0,0,519,63,0,0,0
11,0,0,0,0,3,500,61,0,0,0
12,0,0,0,0,0,521,63,0,0,0
13,0,0,0,0,0,515,63,0,0,0
14,0,0,0,0,0,509,62,0,0,0
15,0,0,0,0,3,501,63,0,0,0
0,0,0,0,0,0,497,62,0,0,0
1,0,0,0,0,0,504,64,0,0,0
2,0,0,0,0,0,501,64,0,0,0
3,0,0,0,0,3,492,63,0,0,0
4,0,0,0,0,0,492,65,0,0,0
5,0,0,0,0,0,484,63,0,0,0
6,0,0,0,0,0,490,65,0,0,0
7,0,0,0,0,1,481,63,0,0,0
8,0,0,0,0,0,475,65,0,0,0
9,0,0,0,0,0,488,66,0,0,0
10,0,0,0,0,0,496,66,0,0,0
11,0,0,0,0,3,499,65,0,0,0
12,0,0,0,0,0,504,67,0,0,0
13,0,0,0,0,0,504,65,0,0,0
14,0,0,0,0,0,513,68,0,0,0
15,0,0,0,0,3,511,67,0,0,0
0,0,0,0,0,0,515,68,0,0,0
1,0,0,0,0,0,504,66,0,0,0
2,0,0,0,0,0,445,69,0,0,0
3,0,0,0,0,3,413,67,0,0,0
4,0,0,0,0,0,477,68,0,0,0
5,0,0,0,0,0,569,67,0,0,0
6,0,0,0,0,0,502,68,0,0,0
7,0,0,0,0,3,499,70,0,0,0
8,0,0,0,0,0,520,67,0,0,0
9,0,0,0,0,0,520,70,0,0,0
10,0,0,0,0,0,527,68,0,0,0
11,0,0,0,0,3,517,70,0,0,0
12,0,0,0,0,0,508,68,0,0,0
13,0,0,0,0,0,502,69,0,0,0
14,0,0,0,0,0,503,69,0,0,0
15,0,0,0,0,3,502,69,0,0,0
0,0,0,0,0,0,506,70,0,0,0
1,0,0,0,0,0,498,71,0,0,0
2,0,0,0,0,0,500,68,0,0,0
3,0,0,0,0,3,500,70,0,0,0
4,0,0,0,0,0,499,69,0,0,0
5,0,0,0,0,0,495,70,0,0,0
6,0,0,0,0,0,497,69,0,0,0
7,0,0,0,0,3,494,70,0,0,0
8,0,0,0,0,0,495,71,0,0,0
9,0,0,0,0,0,495,70,0,0,0
10,0,0,0,0,0,498,70,0,0,0
11,0,0,0,0,3,494,71,0,0,0
12,0,0,0,0,0,497,71,0,0,0
13,0,0,0,0,0,509,71,0,0,0
14,0,0,0,0,0,522,71,0,0,0
15,0,0,0,0,3,530,70,0,0,0
0,0,0,0,0,0,535,71,0,0,0
1,0,0,0,0,0,535,70,0,0,0
2,0,0,0,0,0,537,72,0,0,0
3,0,0,0,0,1,536,70,0,0,0
4,0,0,0,0,0,540,71,0,0,0
5,0,0,0,0,0,532,71,0,0,0
6,0,0,0,0,0,534,71,0,0,0
7,0,0,0,0,3,534,70,0,0,0
8,0,0,0,0,0,533,72,0,0,0
9,0,0,0,0,0,527,70,0,0,0
10,0,0,0,0,0,524,73,0,0,0
11,0,0,0,0,3,519,71,0,0,0
12,0,0,0,0,0,521,72,0,0,0
13,0,0,0,0,0,519,71,0,0,0
14,0,0,0,0,0,515,74,0,0,0
15,0,0,0,0,3,509,71,0,0,0
0,0,0,0,0,0,504,73,0,0,0
1,0,0,0,0,0,497,73,0,0,0
2,0,0,0,0,0,499,72,0,0,0
3,0,0,0,0,3,496,74,0,0,0
4,0,0,0,0,0,501,71,0,0,0
5,0,0,0,0,0,500,75,0,0,0
6,0,0,0,0,0,502,74,0,0,0
7,0,0,0,0,3,500,74,0,0,0
8,0,0,0,0,0,499,75,0,0,0
9,0,0,0,0,0,499,72,0,0,0
10,0,0,0,0,0,499,75,0,0,0
11,0,0,0,0,3,498,74,0,0,0
12,0,0,0,0,0,499,72,0,0,0
13,0,0,0,0,0,496,75,0,0,0
14,0,0,0,0,0,498,75,0,0,0
15,0,0,0,0,3,494,75,0,0,0
0,0,0,0,0,0,495,74,0,0,0
1,0,0,0,0,0,488,74,0,0,0
2,0,0,0,0,0,491,76,0,0,0
3,0,0,0,0,3,490,73,0,0,0
4,0,0,0,0,0,484,76,0,0,0
5,0,0,0,0,0,487,73,0,0,0
6,0,0,0,0,0,490,76,0,0,0
7,0,0,0,0,3,500,74,0,0,0
8,0,0,0,0,0,507,76,0,0,0
9,0,0,0,0,0,510,76,0,0,0
10,0,0,0,0,0,514,74,0,0,0
11,0,0,0,0,3,516,75,0,0,0
12,0,0,0,0,0,519,76,0,0,0
13,0,0,0,0,0,519,74,0,0,0
14,0,0,0,0,0,516,75,0,0,0
15,0,0,0,0,1,514,77,0,0,0
0,0,0,0,0,0,491,77,0,0,0
1,0,0,0,0,0,412,76,0,0,0
2,0,0,0,0,0,424,77,0,0,0
3,0,0,0,0,3,524,77,0,0,0
4,0,0,0,0,0,531,76,0,0,0
5,0,0,0,0,0,467,75,0,0,0
6,0,0,0,0,0,489,77,0,0,0
7,0,0,0,0,3,503,78,0,0,0
8,0,0,0,0,0,508,75,0,0,0
9,0,0,0,0,0,508,77,0,0,0
10,0,0,0,0,0,510,78,0,0,0
11,0,0,0,0,3,507,75,0,0,0
12,0,0,0,0,0,510,78,0,0,0
13,0,0,0,0,0,511,76,0,0,0
14,0,0,0,0,0,511,77,0,0,0
15,0,0,0,0,3,494,78,0,0,0
0,0,0,0,0,0,493,76,0,0,0
1,0,0,0,0,0,501,78,0,0,0
2,0,0,0,0,0,510,76,0,0,0
3,0,0,0,0,3,507,76,0,0,0
4,0,0,0,0,0,509,78,0,0,0
5,0,0,0,0,0,502,77,0,0,0
6,0,0,0,0,0,502,78,0,0,0
7,0,0,0,0,3,503,78,0,0,0
8,0,0,0,0,0,512,79,0,0,0
9,0,0,0,0,0,512,76,0,0,0
10,0,0,0,0,0,516,79,0,0,0
11,0,0,0,0,3,523,76,0,0,0
12,0,0,0,0,0,524,79,0,0,0
13,0,0,0,0,0,526,77,0,0,0
14,0,0,0,0,0,528,79,0,0,0
15,0,0,0,0,3,524,79,0,0,0
0,0,0,0,0,0,522,77,0,0,0
1,0,0,0,0,0,521,79,0,0,0
2,0,0,0,0,0,523,77,0,0,0
3,0,0,0,0,3,521,79,0,0,0
4,0,0,0,0,0,527,79,0,0,0
5,0,0,0,0,0,526,79,0,0,0
6,0,0,0,0,0,521,78,0,0,0
7,0,0,0,0,3,518,79,0,0,0
8,0,0,0,0,0,519,79,0,0,0
9,0,0,0,0,0,520,77,0,0,0
10,0,0,0,0,0,519,80,0,0,0
11,0,0,0,0,0,508,80,0,0,0
12,0,0,0,0,0,502,77,0,0,0
13,0,0,0,0,0,502,78,0,0,0
14,0,0,0,0,0,495,80,0,0,0
15,0,0,0,0,3,492,78,0,0,0
0,0,0,0,0,0,483,80,0,0,0
1,0,0,0,0,0,473,78,0,0,0
2,0,0,0,0,0,471,80,0,0,0
3,0,0,0,0,3,471,80,0,0,0
4,0,0,0,0,0,467,78,0,0,0
5,0,0,0,0,0,466,80,0,0,0
6,0,0,0,0,0,486,77,0,0,0
7,0,0,0,0,3,507,79,0,0,0
8,0,0,0,0,0,519,77,0,0,0
9,0,0,0,0,0,528,79,0,0,0
10,0,0,0,0,0,531,79,0,0,0
11,0,0,0,0,3,528,77,0,0,0
12,0,0,0,0,0,525,79,0,0,0
13,0,0,0,0,0,523,79,0,0,0
14,0,0,0,0,0,526,78,0,0,0
15,0,0,0,0,0,528,79,0,0,0
0,0,0,0,0,0,528,79,0,0,0
1,0,0,0,0,0,520,78,0,0,0
2,0,0,0,0,0,513,79,0,0,0
3,0,0,0,0,3,501,78,0,0,0
4,0,0,0,0,0,506,77,0,0,0
5,0,0,0,0,0,505,79,0,0,0
6,0,0,0,0,0,511,78,0,0,0
7,0,0,0,0,3,513,78,0,0,0
8,0,0,0,0,0,517,79,0,0,0
9,0,0,0,0,0,515,78,0,0,0
10,0,0,0,0,0,519,76,0,0,0
11,0,0,0,0,3,519,78,0,0,0
12,0,0,0,0,0,527,76,0,0,0
13,0,0,0,0,0,531,78,0,0,0
14,0,0,0,0,0,539,76,0,0,0
15,0,0,0,0,3,531,77,0,0,0
0,0,0,0,0,0,489,76,0,0,0
1,0,0,0,0,0,451,77,0,0,0
2,0,0,0,0,0,510,75,0,0,0
3,0,0,0,0,3,591,74,0,0,0
4,0,0,0,0,0,546,77,0,0,0
5,0,0,0,0,0,517,74,0,0,0
6,0,0,0,0,0,537,76,0,0,0
7,0,0,0,0,1,539,76,0,0,0
8,0,0,0,0,0,531,74,0,0,0
9,0,0,0,0,0,522,76,0,0,0
10,0,0,0,0,0,517,74,0,0,0
11,0,0,0,0,3,527,76,0,0,0
12,0,0,0,0,0,539,74,0,0,0
13,0,0,0,0,0,550,73,0,0,0
14,0,0,0,0,0,569,76,0,0,0
15,0,0,0,0,3,571,76,0,0,0
0,0,0,0,0,0,582,73,0,0,0
1,0,0,0,0,0,571,75,0,0,0
2,0,0,0,0,0,573,75,0,0,0
3,0,0,0,0,3,560,76,0,0,0
4,0,0,0,0,0,550,73,0,0,0
5,0,0,0,0,0,541,76,0,0,0
6,0,0,0,0,0,541,76,0,0,0
7,0,0,0,0,3,531,75,0,0,0
8,0,0,0,0,0,512,73,0,0,0
9,0,0,0,0,0,505,75,0,0,0
10,0,0,0,0,0,507,76,0,0,0
11,0,0,0,0,0,540,74,0,0,0
12,0,0,0,0,0,547,76,0,0,0
13,0,0,0,0,0,543,76,0,0,0
14,0,0,0,0,0,544,74,0,0,0
15,0,0,0,0,3,524,75,0,0,0
0,0,0,0,0,0,526,74,0,0,0
1,0,0,0,0,0,531,75,0,0,0
2,0,0,0,0,0,511,76,0,0,0
3,0,0,0,0,3,523,74,0,0,0
4,0,0,0,0,0,518,76,0,0,0
5,0,0,0,0,0,502,76,0,0,0
6,0,0,0,0,0,483,76,0,0,0
7,0,0,0,0,3,463,76,0,0,0
8,0,0,0,0,0,442,73,0,0,0
9,0,0,0,0,0,465,76,0,0,0
10,0,0,0,0,0,463,75,0,0,0
11,0,0,0,0,3,460,76,0,0,0
12,0,0,0,0,0,462,75,0,0,0
13,0,0,0,0,0,463,76,0,0,0
14,0,0,0,0,0,464,75,0,0,0
15,0,0,0,0,3,480,74,0,0,0
0,0,0,0,0,0,492,76,0,0,0
1,0,0,0,0,0,491,77,0,0,0
2,0,0,0,0,0,493,75,0,0,0
3,0,0,0,0,3,493,76,0,0,0
4,0,0,0,0,0,492,77,0,0,0
5,0,0,0,0,0,490,76,0,0,0
6,0,0,0,0,0,488,76,0,0,0
7,0,0,0,0,3,477,77,0,0,0
8,0,0,0,0,0,481,77,0,0,0
9,0,0,0,0,0,486,75,0,0,0
10,0,0,0,0,0,481,76,0,0,0
11,0,0,0,0,3,485,77,0,0,0
12,0,0,0,0,0,487,75,0,0,0
13,0,0,0,0,0,485,77,0,0,0
14,0,0,0,0,0,488,75,0,0,0
15,0,0,0,0,3,490,77,0,0,0
0,0,0,0,0,0,492,76,0,0,0
1,0,0,0,0,0,483,77,0,0,0
2,0,0,0,0,0,486,77,0,0,0
3,0,0,0,0,3,482,76,0,0,0
4,0,0,0,0,0,498,77,0,0,0
5,0,0,0,0,0,497,76,0,0,0
6,0,0,0,0,0,506,77,0,0,0
7,0,0,0,0,0,515,78,0,0,0
8,0,0,0,0,0,515,77,0,0,0
9,0,0,0,0,0,519,75,0,0,0
10,0,0,0,0,0,524,78,0,0,0
11,0,0,0,0,3,519,77,0,0,0
12,0,0,0,0,0,521,77,0,0,0
13,0,0,0,0,0,511,78,0,0,0
14,0,0,0,0,0,515,77,0,0,0
15,0,0,0,0,3,493,77,0,0,0
0,0,0,0,0,0,452,76,0,0,0
1,0,0,0,0,0,457,78,0,0,0
2,0,0,0,0,0,499,76,0,0,0
3,0,0,0,0,3,550,78,0,0,0
4,0,0,0,0,0,502,78,0,0,0
5,0,0,0,0,0,506,76,0,0,0
6,0,0,0,0,0,516,78,0,0,0
7,0,0,0,0,3,520,77,0,0,0
8,0,0,0,0,0,520,76,0,0,0
9,0,0,0,0,0,517,78,0,0,0
10,0,0,0,0,0,520,79,0,0,0
11,0,0,0,0,3,518,77,0,0,0
12,0,0,0,0,0,520,76,0,0,0
13,0,0,0,0,0,516,78,0,0,0
14,0,0,0,0,0,513,76,0,0,0
15,0,0,0,0,3,513,78,0,0,0
0,0,0,0,0,0,505,76,0,0,0
1,0,0,0,0,0,505,78,0,0,0
2,0,0,0,0,0,514,76,0,0,0
3,0,0,0,0,3,514,78,0,0,0
4,0,0,0,0,0,512,79,0,0,0
5,0,0,0,0,0,510,76,0,0,0
6,0,0,0,0,0,511,78,0,0,0
7,0,0,0,0,3,509,77,0,0,0
8,0,0,0,0,0,512,77,0,0,0
9,0,0,0,0,0,516,76,0,0,0
10,0,0,0,0,0,526,76,0,0,0
11,0,0,0,0,3,527,76,0,0,0
12,0,0,0,0,0,533,79,0,0,0
13,0,0,0,0,0,531,77,0,0,0
14,0,0,0,0,0,538,78,0,0,0
15,0,0,0,0,3,538,77,0,0,0
0,0,0,0,0,0,536,78,0,0,0
1,0,0,0,0,0,529,76,0,0,0
2,0,0,0,0,0,530,78,0,0,0
3,0,0,0,0,1,523,75,0,0,0
4,0,0,0,0,0,515,78,0,0,0
5,0,0,0,0,0,518,76,0,0,0
6,0,0,0,0,0,524,78,0,0,0
7,0,0,0,0,3,522,75,0,0,0
8,0,0,0,0,0,515,77,0,0,0
9,0,0,0,0,0,503,75,0,0,0
10,0,0,0,0,0,491,78,0,0,0
11,0,0,0,0,3,503,78,0,0,0
12,0,0,0,0,0,502,76,0,0,0
13,0,0,0,0,0,500,78,0,0,0
14,0,0,0,0,0,498,76,0,0,0
15,0,0,0,0,3,500,78,0,0,0
0,0,0,0,0,0,504,75,0,0,0
1,0,0,0,0,0,508,78,0,0,0
2,0,0,0,0,0,520,76,0,0,0
3,0,0,0,0,3,521,78,0,0,0
4,0,0,0,0,0,527,76,0,0,0
5,0,0,0,0,0,490,78,0,0,0
6,0,0,0,0,0,547,78,0,0,0
7,0,0,0,0,3,534,76,0,0,0
8,0,0,0,0,0,521,78,0,0,0
9,0,0,0,0,0,514,75,0,0,0
10,0,0,0,0,0,515,78,0,0,0
11,0,0,0,0,3,499,77,0,0,0
12,0,0,0,0,0,487,76,0,0,0
13,0,0,0,0,0,505,78,0,0,0
14,0,0,0,0,0,499,78,0,0,0
15,0,0,0,0,3,527,77,0,0,0
0,0,0,0,0,0,520,78,0,0,0
1,0,0,0,0,0,507,78,0,0,0
2,0,0,0,0,0,488,78,0,0,0
3,0,0,0,0,3,504,77,0,0,0
4,0,0,0,0,0,519,76,0,0,0
5,0,0,0,0,0,499,78,0,0,0
6,0,0,0,0,0,534,76,0,0,0
7,0,0,0,0,3,535,78,0,0,0
8,0,0,0,0,0,530,76,0,0,0
9,0,0,0,0,0,526,77,0,0,0
10,0,0,0,0,0,525,76,0,0,0
11,0,0,0,0,3,524,78,0,0,0
12,0,0,0,0,0,527,79,0,0,0
13,0,0,0,0,0,523,77,0,0,0
14,0,0,0,0,0,487,79,0,0,0
15,0,0,0,0,1,468,77,0,0,0
0,0,0,0,0,0,511,76,0,0,0
1,0,0,0,0,0,568,79,0,0,0
2,0,0,0,0,0,520,77,0,0,0
3,0,0,0,0,3,503,79,0,0,0
4,0,0,0,0,0,519,78,0,0,0
5,0,0,0,0,0,516,79,0,0,0
6,0,0,0,0,0,511,77,0,0,0
7,0,0,0,0,3,506,79,0,0,0
8,0,0,0,0,0,504,78,0,0,0
9,0,0,0,0,0,504,79,0,0,0
10,0,0,0,0,0,505,78,0,0,0
11,0,0,0,0,3,508,79,0,0,0
12,0,0,0,0,0,510,77,0,0,0
13,0,0,0,0,0,511,79,0,0,0
14,0,0,0,0,0,513,79,0,0,0
15,0,0,0,0,3,505,79,0,0,0
0,0,0,0,0,0,504,79,0,0,0
1,0,0,0,0,0,498,79,0,0,0
2,0,0,0,0,0,496,77,0,0,0
3,0,0,0,0,3,487,79,0,0,0
4,0,0,0,0,0,483,79,0,0,0
5,0,0,0,0,0,471,79,0,0,0
6,0,0,0,0,0,472,77,0,0,0
7,0,0,0,0,3,477,79,0,0,0
8,0,0,0,0,0,488,77,0,0,0
9,0,0,0,0,0,503,79,0,0,0
10,0,0,0,0,0,515,79,0,0,0
11,0,0,0,0,3,515,79,0,0,0
12,0,0,0,0,0,508,79,0,0,0
13,0,0,0,0,0,495,77,0,0,0
14,0,0,0,0,0,490,79,0,0,0
15,0,0,0,0,3,489,79,0,0,0
0,0,0,0,0,0,495,78,0,0,0
1,0,0,0,0,0,501,80,0,0,0
2,0,0,0,0,0,517,77,0,0,0
3,0,0,0,0,3,533,79,0,0,0
4,0,0,0,0,0,543,77,0,0,0
5,0,0,0,0,0,547,80,0,0,0
6,0,0,0,0,0,551,77,0,0,0
7,0,0,0,0,3,554,79,0,0,0
8,0,0,0,0,0,560,79,0,0,0
9,0,0,0,0,0,563,78,0,0,0
10,0,0,0,0,0,565,79,0,0,0
11,0,0,0,0,0,555,79,0,0,0
12,0,0,0,0,0,550,80,0,0,0
13,0,0,0,0,0,542,79,0,0,0
14,0,0,0,0,0,536,79,0,0,0
15,0,0,0,0,3,527,77,0,0,0
0,0,0,0,0,0,527,79,0,0,0
1,0,0,0,0,0,522,80,0,0,0
2,0,0,0,0,0,522,77,0,0,0
3,0,0,0,0,3,513,79,0,0,0
4,0,0,0,0,0,514,80,0,0,0
5,0,0,0,0,0,516,78,0,0,0
6,0,0,0,0,0,517,78,0,0,0
7,0,0,0,0,3,514,80,0,0,0
8,0,0,0,0,0,518,78,0,0,0
9,0,0,0,0,0,515,79,0,0,0
10,0,0,0,0,0,512,80,0,0,0
11,0,0,0,0,3,510,78,0,0,0
12,0,0,0,0,0,509,80,0,0,0
13,0,0,0,0,0,507,78,0,0,0
14,0,0,0,0,0,507,79,0,0,0
15,0,0,0,0,3,504,80,0,0,0
0,0,0,0,0,0,508,77,0,0,0
1,0,0,0,0,0,508,80,0,0,0
2,0,0,0,0,0,504,78,0,0,0
3,0,0,0,0,3,501,80,0,0,0
4,0,0,0,0,0,501,80,0,0,0
5,0,0,0,0,0,496,78,0,0,0
6,0,0,0,0,0,503,80,0,0,0
7,0,0,0,0,3,508,78,0,0,0
8,0,0,0,0,0,516,80,0,0,0
9,0,0,0,0,0,519,80,0,0,0
10,0,0,0,0,0,529,80,0,0,0
11,0,0,0,0,3,527,79,0,0,0
12,0,0,0,0,0,528,80,0,0,0
13,0,0,0,0,0,525,79,0,0,0
14,0,0,0,0,0,524,78,0,0,0
15,0,0,0,0,3,520,81,0,0,0
0,0,0,0,0,0,521,78,0,0,0
1,0,0,0,0,0,507,80,0,0,0
2,0,0,0,0,0,452,79,0,0,0
3,0,0,0,0,3,439,80,0,0,0
4,0,0,0,0,0,493,79,0,0,0
5,0,0,0,0,0,563,81,0,0,0
6,0,0,0,0,0,508,79,0,0,0
7,0,0,0,0,1,499,81,0,0,0
8,0,0,0,0,0,516,78,0,0,0
9,0,0,0,0,0,514,81,0,0,0
10,0,0,0,0,0,512,78,0,0,0
11,0,0,0,0,3,510,81,0,0,0
12,0,0,0,0,0,515,79,0,0,0
13,0,0,0,0,0,513,81,0,0,0
14,0,0,0,0,0,514,78,0,0,0
15,0,0,0,0,3,511,81,0,0,0
0,0,0,0,0,0,515,80,0,0,0
1,0,0,0,0,0,511,80,0,0,0
2,0,0,0,0,0,508,79,0,0,0
3,0,0,0,0,3,499,79,0,0,0
4,0,0,0,0,0,502,78,0,0,0
5,0,0,0,0,0,501,78,0,0,0
6,0,0,0,0,0,503,77,0,0,0
7,0,0,0,0,3,499,78,0,0,0
8,0,0,0,0,0,496,78,0,0,0
9,0,0,0,0,0,498,76,0,0,0
10,0,0,0,0,0,503,78,0,0,0
11,0,0,0,0,0,505,79,0,0,0
12,0,0,0,0,0,512,78,0,0,0
13,0,0,0,0,0,517,77,0,0,0
14,0,0,0,0,0,526,79,0,0,0
15,0,0,0,0,3,532,78,0,0,0
0,0,0,0,0,0,527,78,0,0,0
1,0,0,0,0,0,508,77,0,0,0
2,0,0,0,0,0,506,74,0,0,0
3,0,0,0,0,3,506,74,0,0,0
4,0,0,0,0,0,514,73,0,0,0
5,0,0,0,0,0,516,71,0,0,0
6,0,0,0,0,0,527,73,0,0,0
7,0,0,0,0,3,527,70,0,0,0
8,0,0,0,0,0,530,71,0,0,0
9,0,0,0,0,0,537,69,0,0,0
10,0,0,0,0,0,548,71,0,0,0
11,0,0,0,0,3,551,70,0,0,0
12,0,0,0,0,0,558,68,0,0,0
13,0,0,0,0,0,556,70,0,0,0
14,0,0,0,0,0,558,68,0,0,0
15,0,0,0,0,3,557,70,0,0,0
0,0,0,0,0,1,559,70,0,0,0
1,0,0,0,0,0,557,68,0,0,0
2,0,0,0,0,0,556,70,0,0,0
3,0,0,0,0,0,553,67,0,0,0
4,0,0,0,0,0,550,69,0,0,0
5,0,0,0,0,0,543,69,0,0,0
6,0,0,0,0,0,543,67,0,0,0
7,0,0,0,0,3,540,67,0,0,0
8,0,0,0,0,0,541,69,0,0,0
9,0,0,0,0,0,531,67,0,0,0
10,0,0,0,0,0,536,68,0,0,0
11,0,0,0,0,3,531,69,0,0,0
12,0,0,0,0,0,531,66,0,0,0
13,0,0,0,0,0,525,68,0,0,0
14,0,0,0,0,0,528,67,0,0,0
15,0,0,0,0,3,526,68,0,0,0
0,0,0,0,0,0,528,67,0,0,0
1,0,0,0,0,0,522,68,0,0,0
2,0,0,0,0,0,524,66,0,0,0
3,0,0,0,0,3,526,68,0,0,0
4,0,0,0,0,0,527,68,0,0,0
5,0,0,0,0,0,524,66,0,0,0
6,0,0,0,0,0,521,67,0,0,0
7,0,0,0,0,1,523,68,0,0,0
8,0,0,0,0,0,523,66,0,0,0
9,0,0,0,0,0,515,67,0,0,0
10,0,0,0,0,0,517,68,0,0,0
11,0,0,0,0,3,519,65,0,0,0
12,0,0,0,0,0,523,68,0,0,0
13,0,0,0,0,0,518,68,0,0,0
14,0,0,0,0,0,522,65,0,0,0
15,0,0,0,0,3,519,67,0,0,0
0,0,0,0,0,0,519,67,0,0,0
1,0,0,0,0,0,515,68,0,0,0
2,0,0,0,0,0,515,67,0,0,0
3,0,0,0,0,3,514,65,0,0,0
4,0,0,0,0,0,517,67,0,0,0
5,0,0,0,0,0,508,67,0,0,0
6,0,0,0,0,0,453,66,0,0,0
7,0,0,0,0,3,441,67,0,0,0
8,0,0,0,0,0,502,65,0,0,0
9,0,0,0,0,0,562,67,0,0,0
10,0,0,0,0,0,502,67,0,0,0
11,0,0,0,0,3,501,65,0,0,0
12,0,0,0,0,0,512,67,0,0,0
13,0,0,0,0,0,510,67,0,0,0
14,0,0,0,0,0,516,66,0,0,0
15,0,0,0,0,3,512,66,0,0,0
0,0,0,0,0,0,509,67,0,0,0
1,0,0,0,0,0,504,67,0,0,0
2,0,0,0,0,0,507,66,0,0,0
3,0,0,0,0,3,504,65,0,0,0
4,0,0,0,0,0,501,67,0,0,0
5,0,0,0,0,0,492,66,0,0,0
6,0,0,0,0,0,489,64,0,0,0
7,0,0,0,0,3,487,67,0,0,0
8,0,0,0,0,0,485,66,0,0,0
9,0,0,0,0,0,468,64,0,0,0
10,0,0,0,0,0,455,66,0,0,0
11,0,0,0,0,3,443,66,0,0,0
12,0,0,0,0,0,442,67,0,0,0
13,0,0,0,0,0,440,64,0,0,0
14,0,0,0,0,0,460,64,0,0,0
15,0,0,0,0,3,473,65,0,0,0
0,0,0,0,0,0,490,66,0,0,0
1,0,0,0,0,0,511,63,0,0,0
2,0,0,0,0,0,524,65,0,0,0
3,0,0,0,0,1,527,65,0,0,0
4,0,0,0,0,0,535,63,0,0,0
5,0,0,0,0,0,532,65,0,0,0
6,0,0,0,0,0,532,63,0,0,0
7,0,0,0,0,3,530,63,0,0,0
8,0,0,0,0,0,530,64,0,0,0
9,0,0,0,0,0,521,63,0,0,0
10,0,0,0,0,0,523,63,0,0,0
11,0,0,0,0,3,520,64,0,0,0
12,0,0,0,0,0,521,63,0,0,0
13,0,0,0,0,0,521,63,0,0,0
14,0,0,0,0,0,524,64,0,0,0
15,0,0,0,0,3,526,62,0,0,0
0,0,0,0,0,0,530,64,0,0,0
1,0,0,0,0,0,531,62,0,0,0
2,0,0,0,0,0,529,63,0,0,0
3,0,0,0,0,3,528,63,0,0,0
4,0,0,0,0,0,530,62,0,0,0
5,0,0,0,0,0,524,63,0,0,0
6,0,0,0,0,0,522,63,0,0,0
7,0,0,0,0,3,518,63,0,0,0
8,0,0,0,0,0,520,60,0,0,0
9,0,0,0,0,0,523,63,0,0,0
10,0,0,0,0,0,522,63,0,0,0
11,0,0,0,0,3,517,60,0,0,0
12,0,0,0,0,0,521,62,0,0,0
13,0,0,0,0,0,522,63,0,0,0
14,0,0,0,0,0,524,61,0,0,0
15,0,0,0,0,3,521,62,0,0,0
0,0,0,0,0,0,524,62,0,0,0
1,0,0,0,0,0,520,61,0,0,0
2,0,0,0,0,0,518,59,0,0,0
3,0,0,0,0,3,516,62,0,0,0
4,0,0,0,0,0,515,61,0,0,0
5,0,0,0,0,0,509,61,0,0,0
6,0,0,0,0,0,509,60,0,0,0
7,0,0,0,0,3,511,59,0,0,0
8,0,0,0,0,0,515,61,0,0,0
9,0,0,0,0,0,516,60,0,0,0
10,0,0,0,0,0,512,59,0,0,0
11,0,0,0,0,3,510,60,0,0,0
12,0,0,0,0,0,504,60,0,0,0
13,0,0,0,0,0,502,58,0,0,0
14,0,0,0,0,0,503,61,0,0,0
15,0,0,0,0,1,504,58,0,0,0
0,0,0,0,0,0,501,60,0,0,0
1,0,0,0,0,0,496,57,0,0,0
2,0,0,0,0,0,498,60,0,0,0
3,0,0,0,0,3,508,60,0,0,0
4,0,0,0,0,0,514,60,0,0,0
5,0,0,0,0,0,512,58,0,0,0
6,0,0,0,0,0,511,60,0,0,0
7,0,0,0,0,3,510,60,0,0,0
8,0,0,0,0,0,508,59,0,0,0
9,0,0,0,0,0,508,60,0,0,0
10,0,0,0,0,0,513,60,0,0,0
11,0,0,0,0,3,508,58,0,0,0
12,0,0,0,0,0,474,60,0,0,0
13,0,0,0,0,0,441,59,0,0,0
14,0,0,0,0,0,488,60,0,0,0
15,0,0,0,0,3,554,57,0,0,0
0,0,0,0,0,0,512,59,0,0,0
1,0,0,0,0,0,496,60,0,0,0
2,0,0,0,0,0,509,58,0,0,0
3,0,0,0,0,3,510,60,0,0,0
4,0,0,0,0,0,511,60,0,0,0
5,0,0,0,0,0,506,58,0,0,0
6,0,0,0,0,0,506,60,0,0,0
7,0,0,0,0,3,510,61,0,0,0
8,0,0,0,0,0,510,58,0,0,0
9,0,0,0,0,0,507,58,0,0,0
10,0,0,0,0,0,506,61,0,0,0
11,0,0,0,0,3,502,58,0,0,0
12,0,0,0,0,0,500,59,0,0,0
13,0,0,0,0,0,494,61,0,0,0
14,0,0,0,0,0,490,59,0,0,0
15,0,0,0,0,3,488,60,0,0,0
0,0,0,0,0,0,483,60,0,0,0
1,0,0,0,0,0,481,58,0,0,0
2,0,0,0,0,0,485,61,0,0,0
3,0,0,0,0,3,481,59,0,0,0
4,0,0,0,0,0,490,59,0,0,0
5,0,0,0,0,0,488,60,0,0,0
6,0,0,0,0,0,489,60,0,0,0
7,0,0,0,0,3,492,61,0,0,0
8,0,0,0,0,0,501,58,0,0,0
9,0,0,0,0,0,508,60,0,0,0
10,0,0,0,0,0,515,61,0,0,0
11,0,0,0,0,0,513,59,0,0,0
12,0,0,0,0,1,516,61,0,0,0
13,0,0,0,0,0,522,58,0,0,0
14,0,0,0,0,0,521,61,0,0,0
15,0,0,0,0,3,526,61,0,0,0
0,0,0,0,0,0,527,59,0,0,0
1,0,0,0,0,0,520,61,0,0,0
2,0,0,0,0,0,521,60,0,0,0
3,0,0,0,0,3,519,60,0,0,0
4,0,0,0,0,0,511,61,0,0,0
5,0,0,0,0,0,501,59,0,0,0
6,0,0,0,0,0,497,61,0,0,0
7,0,0,0,0,3,493,59,0,0,0
8,0,0,0,0,0,497,61,0,0,0
9,0,0,0,0,0,499,59,0,0,0
10,0,0,0,0,0,496,61,0,0,0
11,0,0,0,0,3,495,58,0,0,0
12,0,0,0,0,0,496,61,0,0,0
13,0,0,0,0,0,494,59,0,0,0
14,0,0,0,0,0,496,60,0,0,0
15,0,0,0,0,3,493,60,0,0,0
0,0,0,0,0,0,498,61,0,0,0
1,0,0,0,0,0,500,60,0,0,0
2,0,0,0,0,0,504,59,0,0,0
3,0,0,0,0,3,507,62,0,0,0
4,0,0,0,0,0,508,61,0,0,0
5,0,0,0,0,0,504,59,0,0,0
6,0,0,0,0,0,503,59,0,0,0
7,0,0,0,0,3,503,61,0,0,0
8,0,0,0,0,0,504,60,0,0,0
9,0,0,0,0,0,498,60,0,0,0
10,0,0,0,0,0,496,62,0,0,0
11,0,0,0,0,3,491,60,0,0,0
12,0,0,0,0,0,488,60,0,0,0
13,0,0,0,0,0,485,61,0,0,0
14,0,0,0,0,0,477,59,0,0,0
15,0,0,0,0,3,482,61,0,0,0
0,0,0,0,0,0,483,60,0,0,0
1,0,0,0,0,0,479,61,0,0,0
2,0,0,0,0,0,479,59,0,0,0
3,0,0,0,0,3,477,62,0,0,0
4,0,0,0,0,0,480,59,0,0,0
5,0,0,0,0,0,479,62,0,0,0
6,0,0,0,0,0,484,59,0,0,0
7,0,0,0,0,0,486,61,0,0,0
8,0,0,0,0,0,500,59,0,0,0
9,0,0,0,0,0,507,61,0,0,0
10,0,0,0,0,0,514,62,0,0,0
11,0,0,0,0,3,510,60,0,0,0
12,0,0,0,0,0,506,61,0,0,0
13,0,0,0,0,0,505,62,0,0,0
14,0,0,0,0,0,503,59,0,0,0
15,0,0,0,0,3,509,62,0,0,0
0,0,0,0,0,0,518,60,0,0,0
1,0,0,0,0,0,485,59,0,0,0
2,0,0,0,0,0,445,61,0,0,0
3,0,0,0,0,3,483,60,0,0,0
4,0,0,0,0,0,556,62,0,0,0
5,0,0,0,0,0,514,59,0,0,0
6,0,0,0,0,0,495,62,0,0,0
7,0,0,0,0,3,511,62,0,0,0
8,0,0,0,0,0,516,62,0,0,0
9,0,0,0,0,0,514,59,0,0,0
10,0,0,0,0,0,513,62,0,0,0
11,0,0,0,0,3,509,59,0,0,0
12,0,0,0,0,0,508,62,0,0,0
13,0,0,0,0,0,501,62,0,0,0
14,0,0,0,0,0,502,62,0,0,0
15,0,0,0,0,3,494,60,0,0,0
0,0,0,0,0,0,484,62,0,0,0
1,0,0,0,0,0,476,62,0,0,0
2,0,0,0,0,0,467,62,0,0,0
3,0,0,0,0,3,460,62,0,0,0
4,0,0,0,0,0,467,60,0,0,0
5,0,0,0,0,0,463,62,0,0,0
6,0,0,0,0,0,462,60,0,0,0
7,0,0,0,0,3,450,62,0,0,0
8,0,0,0,0,0,448,62,0,0,0
9,0,0,0,0,0,445,62,0,0,0
10,0,0,0,0,0,450,60,0,0,0
11,0,0,0,0,3,458,61,0,0,0
12,0,0,0,0,0,464,61,0,0,0
13,0,0,0,0,0,469,62,0,0,0
14,0,0,0,0,0,464,61,0,0,0
15,0,0,0,0,3,490,60,0,0,0
0,0,0,0,0,0,511,62,0,0,0
1,0,0,0,0,0,529,60,0,0,0
2,0,0,0,0,0,542,62,0,0,0
3,0,0,0,0,0,547,62,0,0,0
4,0,0,0,0,0,553,60,0,0,0
5,0,0,0,0,0,555,62,0,0,0
6,0,0,0,0,0,547,60,0,0,0
7,0,0,0,0,3,539,60,0,0,0
8,0,0,0,0,0,539,62,0,0,0
9,0,0,0,0,0,534,62,0,0,0
10,0,0,0,0,0,529,60,0,0,0
11,0,0,0,0,3,526,62,0,0,0
12,0,0,0,0,0,531,61,0,0,0
13,0,0,0,0,0,532,62,0,0,0
14,0,0,0,0,0,528,61,0,0,0
15,0,0,0,0,3,524,63,0,0,0
0,0,0,0,0,0,524,60,0,0,0
1,0,0,0,0,0,531,61,0,0,0
2,0,0,0,0,0,533,60,0,0,0
3,0,0,0,0,3,527,62,0,0,0
4,0,0,0,0,0,531,62,0,0,0
5,0,0,0,0,0,534,62,0,0,0
6,0,0,0,0,0,527,63,0,0,0
7,0,0,0,0,0,522,60,0,0,0
8,0,0,0,0,0,523,61,0,0,0
9,0,0,0,0,0,518,62,0,0,0
10,0,0,0,0,0,520,61,0,0,0
11,0,0,0,0,3,527,62,0,0,0
12,0,0,0,0,0,523,62,0,0,0
13,0,0,0,0,0,519,63,0,0,0
14,0,0,0,0,0,523,60,0,0,0
15,0,0,0,0,3,533,63,0,0,0
0,0,0,0,0,0,525,60,0,0,0
1,0,0,0,0,0,529,62,0,0,0
2,0,0,0,0,0,532,63,0,0,0
3,0,0,0,0,3,529,60,0,0,0
4,0,0,0,0,0,521,62,0,0,0
5,0,0,0,0,0,506,63,0,0,0
6,0,0,0,0,0,516,62,0,0,0
7,0,0,0,0,3,529,63,0,0,0
8,0,0,0,0,0,524,62,0,0,0
9,0,0,0,0,0,524,62,0,0,0
10,0,0,0,0,0,523,63,0,0,0
11,0,0,0,0,3,524,61,0,0,0
12,0,0,0,0,0,534,61,0,0,0
13,0,0,0,0,0,531,63,0,0,0
14,0,0,0,0,0,525,61,0,0,0
15,0,0,0,0,3,516,63,0,0,0
0,0,0,0,0,0,512,63,0,0,0
1,0,0,0,0,0,506,63,0,0,0
2,0,0,0,0,0,509,61,0,0,0
3,0,0,0,0,3,528,63,0,0,0
4,0,0,0,0,0,515,62,0,0,0
5,0,0,0,0,0,423,63,0,0,0
6,0,0,0,0,0,425,61,0,0,0
7,0,0,0,0,3,550,63,0,0,0
8,0,0,0,0,0,598,62,0,0,0
9,0,0,0,0,0,494,62,0,0,0
10,0,0,0,0,0,513,63,0,0,0
11,0,0,0,0,3,536,63,0,0,0
12,0,0,0,0,0,540,63,0,0,0
13,0,0,0,0,0,537,62,0,0,0
14,0,0,0,0,0,537,63,0,0,0
15,0,0,0,0,3,542,63,0,0,0
0,0,0,0,0,0,560,61,0,0,0
1,0,0,0,0,0,566,63,0,0,0
2,0,0,0,0,0,555,64,0,0,0
3,0,0,0,0,1,535,61,0,0,0
4,0,0,0,0,0,523,63,0,0,0
5,0,0,0,0,0,512,63,0,0,0
6,0,0,0,0,0,504,63,0,0,0
7,0,0,0,0,3,502,63,0,0,0
8,0,0,0,0,0,496,61,0,0,0
9,0,0,0,0,0,487,63,0,0,0
10,0,0,0,0,0,487,63,0,0,0
11,0,0,0,0,3,489,61,0,0,0
12,0,0,0,0,0,490,64,0,0,0
13,0,0,0,0,0,488,61,0,0,0
14,0,0,0,0,0,489,64,0,0,0
15,0,0,0,0,3,493,62,0,0,0
0,0,0,0,0,0,499,63,0,0,0
1,0,0,0,0,0,510,62,0,0,0
2,0,0,0,0,0,522,62,0,0,0
3,0,0,0,0,3,528,63,0,0,0
4,0,0,0,0,0,530,63,0,0,0
5,0,0,0,0,0,527,64,0,0,0
6,0,0,0,0,0,525,61,0,0,0
7,0,0,0,0,3,523,61,0,0,0
8,0,0,0,0,0,523,63,0,0,0
9,0,0,0,0,0,523,63,0,0,0
10,0,0,0,0,0,525,62,0,0,0
11,0,0,0,0,3,521,63,0,0,0
12,0,0,0,0,0,519,63,0,0,0
13,0,0,0,0,0,518,63,0,0,0
14,0,0,0,0,0,515,62,0,0,0
15,0,0,0,0,3,510,64,0,0,0
0,0,0,0,0,0,512,62,0,0,0
1,0,0,0,0,0,509,63,0,0,0
2,0,0,0,0,0,511,64,0,0,0
3,0,0,0,0,3,507,62,0,0,0
4,0,0,0,0,0,509,64,0,0,0
5,0,0,0,0,0,507,62,0,0,0
6,0,0,0,0,0,507,65,0,0,0
7,0,0,0,0,3,505,64,0,0,0
8,0,0,0,0,0,508,62,0,0,0
9,0,0,0,0,0,509,64,0,0,0
10,0,0,0,0,0,509,64,0,0,0
11,0,0,0,0,3,505,62,0,0,0
12,0,0,0,0,0,508,64,0,0,0
13,0,0,0,0,0,509,64,0,0,0
14,0,0,0,0,0,511,62,0,0,0
15,0,0,0,0,0,511,64,0,0,0
0,0,0,0,0,0,514,64,0,0,0
1,0,0,0,0,0,508,63,0,0,0
2,0,0,0,0,0,508,64,0,0,0
3,0,0,0,0,3,503,63,0,0,0
4,0,0,0,0,0,495,64,0,0,0
5,0,0,0,0,0,503,63,0,0,0
6,0,0,0,0,0,510,63,0,0,0
7,0,0,0,0,3,517,64,0,0,0
8,0,0,0,0,0,527,65,0,0,0
9,0,0,0,0,0,534,63,0,0,0
10,0,0,0,0,0,529,63,0,0,0
11,0,0,0,0,3,531,64,0,0,0
12,0,0,0,0,0,530,63,0,0,0
13,0,0,0,0,0,528,65,0,0,0
14,0,0,0,0,0,531,62,0,0,0
15,0,0,0,0,3,534,62,0,0,0
0,0,0,0,0,0,529,64,0,0,0
1,0,0,0,0,0,480,64,0,0,0
2,0,0,0,0,0,423,64,0,0,0
3,0,0,0,0,3,492,63,0,0,0
4,0,0,0,0,0,615,62,0,0,0
5,0,0,0,0,0,539,63,0,0,0
6,0,0,0,0,0,487,64,0,0,0
7,0,0,0,0,3,520,65,0,0,0
8,0,0,0,0,0,527,64,0,0,0
9,0,0,0,0,0,527,63,0,0,0
10,0,0,0,0,0,519,63,0,0,0
11,0,0,0,0,3,511,65,0,0,0
12,0,0,0,0,0,515,65,0,0,0
13,0,0,0,0,0,519,62,0,0,0
14,0,0,0,0,0,509,65,0,0,0
15,0,0,0,0,3,502,65,0,0,0
0,0,0,0,0,0,502,63,0,0,0
1,0,0,0,0,0,492,64,0,0,0
2,0,0,0,0,0,482,65,0,0,0
3,0,0,0,0,3,475,63,0,0,0
4,0,0,0,0,0,476,65,0,0,0
5,0,0,0,0,0,473,63,0,0,0
6,0,0,0,0,0,476,65,0,0,0
7,0,0,0,0,3,472,64,0,0,0
8,0,0,0,0,0,476,65,0,0,0
9,0,0,0,0,0,481,64,0,0,0
10,0,0,0,0,0,480,64,0,0,0
11,0,0,0,0,0,479,65,0,0,0
12,0,0,0,0,0,489,65,0,0,0
13,0,0,0,0,0,498,63,0,0,0
14,0,0,0,0,0,516,65,0,0,0
15,0,0,0,0,3,526,65,0,0,0
0,0,0,0,0,0,535,62,0,0,0
1,0,0,0,0,0,534,65,0,0,0
2,0,0,0,0,0,526,64,0,0,0
3,0,0,0,0,3,512,63,0,0,0
4,0,0,0,0,0,504,65,0,0,0
5,0,0,0,0,0,496,63,0,0,0
6,0,0,0,0,0,500,64,0,0,0
7,0,0,0,0,3,503,65,0,0,0
8,0,0,0,0,0,505,63,0,0,0
9,0,0,0,0,0,506,65,0,0,0
10,0,0,0,0,0,510,64,0,0,0
11,0,0,0,0,3,515,65,0,0,0
12,0,0,0,0,0,513,65,0,0,0
13,0,0,0,0,0,510,63,0,0,0
14,0,0,0,0,0,511,65,0,0,0
15,0,0,0,0,3,509,63,0,0,0
0,0,0,0,0,0,505,65,0,0,0
1,0,0,0,0,0,499,63,0,0,0
2,0,0,0,0,0,501,65,0,0,0
3,0,0,0,0,3,503,63,0,0,0
4,0,0,0,0,0,504,65,0,0,0
5,0,0,0,0,0,503,63,0,0,0
6,0,0,0,0,0,508,65,0,0,0
7,0,0,0,0,3,505,64,0,0,0
8,0,0,0,0,0,507,65,0,0,0
9,0,0,0,0,0,507,64,0,0,0
10,0,0,0,0,0,500,65,0,0,0
11,0,0,0,0,3,497,65,0,0,0
12,0,0,0,0,0,493,63,0,0,0
13,0,0,0,0,0,481,65,0,0,0
14,0,0,0,0,0,487,63,0,0,0
15,0,0,0,0,3,495,65,0,0,0
0,0,0,0,0,0,504,65,0,0,0
1,0,0,0,0,0,517,63,0,0,0
2,0,0,0,0,0,520,63,0,0,0
3,0,0,0,0,3,521,63,0,0,0
4,0,0,0,0,0,516,65,0,0,0
5,0,0,0,0,0,516,63,0,0,0
6,0,0,0,0,0,515,65,0,0,0
7,0,0,0,0,1,515,65,0,0,0
8,0,0,0,0,0,518,65,0,0,0
9,0,0,0,0,0,508,63,0,0,0
10,0,0,0,0,0,463,63,0,0,0
11,0,0,0,0,3,438,65,0,0,0
12,0,0,0,0,0,506,63,0,0,0
13,0,0,0,0,0,584,66,0,0,0
14,0,0,0,0,0,522,63,0,0,0
15,0,0,0,0,3,511,65,0,0,0
0,0,0,0,0,0,532,64,0,0,0
1,0,0,0,0,0,529,65,0,0,0
2,0,0,0,0,0,530,63,0,0,0
3,0,0,0,0,3,525,65,0,0,0
4,0,0,0,0,0,520,63,0,0,0
5,0,0,0,0,0,517,65,0,0,0
6,0,0,0,0,0,515,64,0,0,0
7,0,0,0,0,3,515,65,0,0,0
8,0,0,0,0,0,519,63,0,0,0
9,0,0,0,0,0,521,65,0,0,0
10,0,0,0,0,0,519,65,0,0,0
11,0,0,0,0,3,510,64,0,0,0
12,0,0,0,0,0,508,65,0,0,0
13,0,0,0,0,0,508,64,0,0,0
14,0,0,0,0,0,511,65,0,0,0
15,0,0,0,0,3,508,65,0,0,0
0,0,0,0,0,0,508,63,0,0,0
1,0,0,0,0,0,507,65,0,0,0
2,0,0,0,0,0,504,65,0,0,0
3,0,0,0,0,3,499,63,0,0,0
4,0,0,0,0,0,503,65,0,0,0
5,0,0,0,0,0,508,64,0,0,0
6,0,0,0,0,0,521,65,0,0,0
7,0,0,0,0,3,531,63,0,0,0
8,0,0,0,0,0,538,65,0,0,0
9,0,0,0,0,0,537,63,0,0,0
10,0,0,0,0,0,535,65,0,0,0
11,0,0,0,0,3,529,64,0,0,0
12,0,0,0,0,0,532,65,0,0,0
13,0,0,0,0,0,531,64,0,0,0
14,0,0,0,0,0,531,65,0,0,0
15,0,0,0,0,3,530,65,0,0,0
0,0,0,0,0,0,528,65,0,0,0
