0,1,2,3,4,5,6,7,8,9,10
7,0,0,0,0,3,514,73,0,0,0
8,0,0,0,0,0,509,71,0,0,0
9,0,0,0,0,0,505,73,0,0,0
10,0,0,0,0,0,501,71,0,0,0
11,0,0,0,0,3,503,71,0,0,0
12,0,0,0,0,0,497,73,0,0,0
13,0,0,0,0,0,500,72,0,0,0
14,0,0,0,0,0,499,73,0,0,0
15,0,0,0,0,1,496,70,0,0,0
0,0,0,0,0,0,495,72,0,0,0
1,0,0,0,0,0,496,71,0,0,0
2,0,0,0,0,0,491,73,0,0,0
3,0,0,0,0,3,493,73,0,0,0
4,0,0,0,0,0,507,71,0,0,0
5,0,0,0,0,0,518,73,0,0,0
6,0,0,0,0,1,523,71,0,0,0
7,0,0,0,0,3,526,73,0,0,0
8,0,0,0,0,0,528,71,0,0,0
9,0,0,0,0,0,528,73,0,0,0
10,0,0,0,0,0,527,72,0,0,0
11,0,0,0,0,3,525,72,0,0,0
12,0,0,0,0,0,522,72,0,0,0
13,0,0,0,0,0,517,72,0,0,0
14,0,0,0,0,0,512,72,0,0,0
15,0,0,0,0,3,510,72,0,0,0
0,0,0,0,0,0,512,70,0,0,0
1,0,0,0,0,0,515,72,0,0,0
2,0,0,0,0,1,513,73,0,0,0
3,0,0,0,0,3,515,70,0,0,0
4,0,0,0,0,0,513,73,0,0,0
5,0,0,0,0,0,514,71,0,0,0
6,0,0,0,0,0,512,73,0,0,0
7,0,0,0,0,3,518,70,0,0,0
8,0,0,0,0,1,521,72,0,0,0
9,0,0,0,0,0,519,73,0,0,0
10,0,0,0,0,0,520,72,0,0,0
11,0,0,0,0,3,520,71,0,0,0
12,0,0,0,0,0,518,72,0,0,0
13,0,0,0,0,0,515,71,0,0,0
14,0,0,0,0,0,516,73,0,0,0
15,0,0,0,0,3,517,73,0,0,0
0,0,0,0,0,0,513,70,0,0,0
1,0,0,0,0,0,516,72,0,0,0
2,0,0,0,0,0,517,70,0,0,0
3,0,0,0,0,3,518,72,0,0,0
4,0,0,0,0,1,516,72,0,0,0
5,0,0,0,0,0,509,72,0,0,0
6,0,0,0,0,0,508,73,0,0,0
7,0,0,0,0,3,507,72,0,0,0
8,0,0,0,0,0,499,71,0,0,0
9,0,0,0,0,0,505,73,0,0,0
10,0,0,0,0,0,504,71,0,0,0
11,0,0,0,0,0,511,72,0,0,0
12,0,0,0,0,0,523,72,0,0,0
13,0,0,0,0,0,530,71,0,0,0
14,0,0,0,0,0,530,71,0,0,0
15,0,0,0,0,3,528,70,0,0,0
0,0,0,0,0,1,526,72,0,0,0
1,0,0,0,0,0,523,70,0,0,0
2,0,0,0,0,0,521,71,0,0,0
3,0,0,0,0,3,518,72,0,0,0
4,0,0,0,0,0,498,71,0,0,0
5,0,0,0,0,0,438,71,0,0,0
6,0,0,0,0,1,469,72,0,0,0
7,0,0,0,0,3,567,72,0,0,0
8,0,0,0,0,0,559,70,0,0,0
9,0,0,0,0,0,496,71,0,0,0
10,0,0,0,0,0,503,72,0,0,0
11,0,0,0,0,3,513,72,0,0,0
12,0,0,0,0,0,514,70,0,0,0
13,0,0,0,0,0,518,72,0,0,0
14,0,0,0,0,0,515,72,0,0,0
15,0,0,0,0,3,515,70,0,0,0
0,0,0,0,0,0,514,72,0,0,0
1,0,0,0,0,0,514,71,0,0,0
2,0,0,0,0,1,511,71,0,0,0
3,0,0,0,0,3,510,71,0,0,0
4,0,0,0,0,0,504,71,0,0,0
5,0,0,0,0,0,504,70,0,0,0
6,0,0,0,0,0,504,70,0,0,0
7,0,0,0,0,3,504,71,0,0,0
8,0,0,0,0,0,501,71,0,0,0
9,0,0,0,0,0,500,71,0,0,0
10,0,0,0,0,0,497,72,0,0,0
11,0,0,0,0,3,492,70,0,0,0
12,0,0,0,0,0,491,72,0,0,0
13,0,0,0,0,0,491,70,0,0,0
14,0,0,0,0,0,490,72,0,0,0
15,0,0,0,0,3,498,72,0,0,0
0,0,0,0,0,0,505,72,0,0,0
1,0,0,0,0,0,515,71,0,0,0
2,0,0,0,0,0,522,70,0,0,0
3,0,0,0,0,3,534,72,0,0,0
4,0,0,0,0,1,532,70,0,0,0
5,0,0,0,0,0,530,72,0,0,0
6,0,0,0,0,0,523,71,0,0,0
7,0,0,0,0,1,519,71,0,0,0
8,0,0,0,0,0,507,71,0,0,0
9,0,0,0,0,0,505,71,0,0,0
10,0,0,0,0,0,502,70,0,0,0
11,0,0,0,0,3,501,72,0,0,0
12,0,0,0,0,0,496,70,0,0,0
13,0,0,0,0,0,497,72,0,0,0
14,0,0,0,0,0,498,70,0,0,0
15,0,0,0,0,3,498,71,0,0,0
0,0,0,0,0,1,495,70,0,0,0
1,0,0,0,0,0,496,70,0,0,0
2,0,0,0,0,0,497,72,0,0,0
3,0,0,0,0,3,495,70,0,0,0
4,0,0,0,0,0,493,71,0,0,0
5,0,0,0,0,0,493,71,0,0,0
6,0,0,0,0,0,493,71,0,0,0
7,0,0,0,0,3,493,69,0,0,0
8,0,0,0,0,0,495,71,0,0,0
9,0,0,0,0,0,498,69,0,0,0
10,0,0,0,0,0,496,72,0,0,0
11,0,0,0,0,3,500,71,0,0,0
12,0,0,0,0,1,500,70,0,0,0
13,0,0,0,0,0,506,72,0,0,0
14,0,0,0,0,0,503,70,0,0,0
15,0,0,0,0,3,503,71,0,0,0
0,0,0,0,0,0,504,70,0,0,0
1,0,0,0,0,0,502,71,0,0,0
2,0,0,0,0,1,510,72,0,0,0
3,0,0,0,0,3,511,70,0,0,0
4,0,0,0,0,0,517,71,0,0,0
5,0,0,0,0,0,529,72,0,0,0
6,0,0,0,0,0,534,71,0,0,0
7,0,0,0,0,3,534,71,0,0,0
8,0,0,0,0,0,532,71,0,0,0
9,0,0,0,0,0,531,71,0,0,0
10,0,0,0,0,0,530,69,0,0,0
11,0,0,0,0,3,534,71,0,0,0
12,0,0,0,0,0,531,71,0,0,0
13,0,0,0,0,0,505,72,0,0,0
14,0,0,0,0,1,455,70,0,0,0
15,0,0,0,0,3,495,70,0,0,0
0,0,0,0,0,0,580,72,0,0,0
1,0,0,0,0,0,559,69,0,0,0
2,0,0,0,0,0,504,71,0,0,0
3,0,0,0,0,0,520,71,0,0,0
4,0,0,0,0,0,524,69,0,0,0
5,0,0,0,0,0,522,72,0,0,0
6,0,0,0,0,0,521,70,0,0,0
7,0,0,0,0,3,524,71,0,0,0
8,0,0,0,0,0,519,69,0,0,0
9,0,0,0,0,0,518,72,0,0,0
10,0,0,0,0,1,511,70,0,0,0
11,0,0,0,0,3,514,71,0,0,0
12,0,0,0,0,0,511,70,0,0,0
13,0,0,0,0,0,504,71,0,0,0
14,0,0,0,0,0,503,71,0,0,0
15,0,0,0,0,3,506,69,0,0,0
0,0,0,0,0,1,499,71,0,0,0
1,0,0,0,0,0,498,71,0,0,0
2,0,0,0,0,0,494,71,0,0,0
3,0,0,0,0,3,494,71,0,0,0
4,0,0,0,0,0,489,71,0,0,0
5,0,0,0,0,0,489,71,0,0,0
6,0,0,0,0,1,489,71,0,0,0
7,0,0,0,0,3,495,70,0,0,0
8,0,0,0,0,0,497,69,0,0,0
9,0,0,0,0,0,501,69,0,0,0
10,0,0,0,0,0,512,71,0,0,0
11,0,0,0,0,3,520,71,0,0,0
12,0,0,0,0,1,526,71,0,0,0
13,0,0,0,0,0,530,71,0,0,0
14,0,0,0,0,0,529,71,0,0,0
15,0,0,0,0,3,528,71,0,0,0
0,0,0,0,0,0,530,71,0,0,0
1,0,0,0,0,0,529,71,0,0,0
2,0,0,0,0,0,527,70,0,0,0
3,0,0,0,0,3,526,69,0,0,0
4,0,0,0,0,0,520,71,0,0,0
5,0,0,0,0,0,518,71,0,0,0
6,0,0,0,0,0,516,70,0,0,0
7,0,0,0,0,3,512,70,0,0,0
8,0,0,0,0,1,505,71,0,0,0
9,0,0,0,0,0,507,70,0,0,0
10,0,0,0,0,0,503,71,0,0,0
11,0,0,0,0,3,503,68,0,0,0
12,0,0,0,0,0,500,69,0,0,0
13,0,0,0,0,0,504,69,0,0,0
14,0,0,0,0,1,506,68,0,0,0
15,0,0,0,0,0,508,70,0,0,0
0,0,0,0,0,0,508,69,0,0,0
1,0,0,0,0,0,510,69,0,0,0
2,0,0,0,0,0,511,69,0,0,0
3,0,0,0,0,3,509,69,0,0,0
4,0,0,0,0,0,510,68,0,0,0
5,0,0,0,0,0,512,68,0,0,0
6,0,0,0,0,0,513,69,0,0,0
7,0,0,0,0,3,511,71,0,0,0
8,0,0,0,0,0,508,71,0,0,0
9,0,0,0,0,0,506,71,0,0,0
10,0,0,0,0,1,499,71,0,0,0
11,0,0,0,0,3,503,71,0,0,0
12,0,0,0,0,0,508,71,0,0,0
13,0,0,0,0,0,514,71,0,0,0
14,0,0,0,0,0,515,71,0,0,0
15,0,0,0,0,3,520,71,0,0,0
0,0,0,0,0,0,523,71,0,0,0
1,0,0,0,0,0,524,71,0,0,0
2,0,0,0,0,0,520,69,0,0,0
3,0,0,0,0,1,513,69,0,0,0
4,0,0,0,0,0,509,70,0,0,0
5,0,0,0,0,0,518,71,0,0,0
6,0,0,0,0,1,503,68,0,0,0
7,0,0,0,0,3,442,68,0,0,0
8,0,0,0,0,0,433,70,0,0,0
9,0,0,0,0,0,511,71,0,0,0
10,0,0,0,0,0,565,71,0,0,0
11,0,0,0,0,3,486,71,0,0,0
12,0,0,0,0,1,488,68,0,0,0
13,0,0,0,0,0,503,71,0,0,0
14,0,0,0,0,0,505,71,0,0,0
15,0,0,0,0,3,507,71,0,0,0
0,0,0,0,0,0,503,71,0,0,0
1,0,0,0,0,0,499,71,0,0,0
2,0,0,0,0,0,499,68,0,0,0
3,0,0,0,0,3,499,68,0,0,0
4,0,0,0,0,0,497,70,0,0,0
5,0,0,0,0,0,496,71,0,0,0
6,0,0,0,0,0,494,68,0,0,0
7,0,0,0,0,3,494,68,0,0,0
8,0,0,0,0,1,496,68,0,0,0
9,0,0,0,0,0,494,70,0,0,0
10,0,0,0,0,0,490,69,0,0,0
11,0,0,0,0,3,489,69,0,0,0
12,0,0,0,0,0,489,71,0,0,0
13,0,0,0,0,0,488,70,0,0,0
14,0,0,0,0,0,488,68,0,0,0
15,0,0,0,0,3,490,68,0,0,0
0,0,0,0,0,0,493,69,0,0,0
1,0,0,0,0,0,499,71,0,0,0
2,0,0,0,0,0,511,71,0,0,0
3,0,0,0,0,3,522,71,0,0,0
4,0,0,0,0,1,524,70,0,0,0
5,0,0,0,0,0,529,69,0,0,0
6,0,0,0,0,0,531,69,0,0,0
7,0,0,0,0,3,534,71,0,0,0
8,0,0,0,0,0,531,69,0,0,0
9,0,0,0,0,0,535,70,0,0,0
10,0,0,0,0,1,536,70,0,0,0
11,0,0,0,0,3,532,71,0,0,0
12,0,0,0,0,0,529,68,0,0,0
13,0,0,0,0,0,528,70,0,0,0
14,0,0,0,0,0,526,71,0,0,0
15,0,0,0,0,0,525,70,0,0,0
0,0,0,0,0,0,527,68,0,0,0
1,0,0,0,0,0,528,68,0,0,0
2,0,0,0,0,0,525,68,0,0,0
3,0,0,0,0,3,527,71,0,0,0
4,0,0,0,0,0,522,70,0,0,0
5,0,0,0,0,0,525,70,0,0,0
6,0,0,0,0,1,523,68,0,0,0
7,0,0,0,0,3,523,71,0,0,0
8,0,0,0,0,0,521,68,0,0,0
9,0,0,0,0,0,523,71,0,0,0
10,0,0,0,0,0,523,70,0,0,0
11,0,0,0,0,3,523,69,0,0,0
12,0,0,0,0,0,520,70,0,0,0
13,0,0,0,0,0,523,71,0,0,0
14,0,0,0,0,0,523,71,0,0,0
15,0,0,0,0,3,522,71,0,0,0
0,0,0,0,0,0,520,70,0,0,0
1,0,0,0,0,0,520,69,0,0,0
2,0,0,0,0,1,515,68,0,0,0
3,0,0,0,0,3,514,68,0,0,0
4,0,0,0,0,0,508,68,0,0,0
5,0,0,0,0,0,498,70,0,0,0
6,0,0,0,0,0,496,69,0,0,0
7,0,0,0,0,3,500,70,0,0,0
8,0,0,0,0,1,502,70,0,0,0
9,0,0,0,0,0,513,70,0,0,0
10,0,0,0,0,0,521,68,0,0,0
11,0,0,0,0,3,526,69,0,0,0
12,0,0,0,0,0,524,70,0,0,0
13,0,0,0,0,0,523,70,0,0,0
14,0,0,0,0,0,520,70,0,0,0
15,0,0,0,0,3,517,68,0,0,0
0,0,0,0,0,0,515,68,0,0,0
1,0,0,0,0,0,510,68,0,0,0
2,0,0,0,0,0,456,68,0,0,0
3,0,0,0,0,3,428,68,0,0,0
4,0,0,0,0,0,486,70,0,0,0
5,0,0,0,0,0,575,70,0,0,0
6,0,0,0,0,0,502,71,0,0,0
7,0,0,0,0,3,493,70,0,0,0
8,0,0,0,0,0,508,68,0,0,0
9,0,0,0,0,0,509,69,0,0,0
10,0,0,0,0,0,509,70,0,0,0
11,0,0,0,0,0,511,70,0,0,0
12,0,0,0,0,0,507,70,0,0,0
13,0,0,0,0,0,510,70,0,0,0
14,0,0,0,0,0,508,71,0,0,0
15,0,0,0,0,3,509,71,0,0,0
0,0,0,0,0,1,509,69,0,0,0
1,0,0,0,0,0,509,68,0,0,0
2,0,0,0,0,0,507,70,0,0,0
3,0,0,0,0,3,504,70,0,0,0
4,0,0,0,0,0,502,68,0,0,0
5,0,0,0,0,0,499,68,0,0,0
6,0,0,0,0,1,491,70,0,0,0
7,0,0,0,0,3,492,70,0,0,0
8,0,0,0,0,0,492,69,0,0,0
9,0,0,0,0,0,490,69,0,0,0
10,0,0,0,0,0,487,70,0,0,0
11,0,0,0,0,3,495,70,0,0,0
12,0,0,0,0,0,497,69,0,0,0
13,0,0,0,0,0,505,69,0,0,0
14,0,0,0,0,0,511,68,0,0,0
15,0,0,0,0,3,519,70,0,0,0
0,0,0,0,0,0,524,71,0,0,0
1,0,0,0,0,0,525,68,0,0,0
2,0,0,0,0,1,523,70,0,0,0
3,0,0,0,0,3,526,69,0,0,0
4,0,0,0,0,0,526,70,0,0,0
5,0,0,0,0,0,521,69,0,0,0
6,0,0,0,0,0,513,70,0,0,0
7,0,0,0,0,3,513,69,0,0,0
8,0,0,0,0,0,512,68,0,0,0
9,0,0,0,0,0,514,68,0,0,0
10,0,0,0,0,0,509,70,0,0,0
11,0,0,0,0,3,511,68,0,0,0
12,0,0,0,0,0,506,70,0,0,0
13,0,0,0,0,0,508,70,0,0,0
14,0,0,0,0,0,505,70,0,0,0
15,0,0,0,0,3,504,69,0,0,0
0,0,0,0,0,0,503,68,0,0,0
1,0,0,0,0,0,506,69,0,0,0
2,0,0,0,0,0,504,68,0,0,0
3,0,0,0,0,3,506,68,0,0,0
4,0,0,0,0,1,507,70,0,0,0
5,0,0,0,0,0,508,68,0,0,0
6,0,0,0,0,0,507,70,0,0,0
7,0,0,0,0,1,508,70,0,0,0
8,0,0,0,0,0,507,69,0,0,0
9,0,0,0,0,0,511,70,0,0,0
10,0,0,0,0,0,511,70,0,0,0
11,0,0,0,0,3,512,69,0,0,0
12,0,0,0,0,0,509,69,0,0,0
13,0,0,0,0,0,513,70,0,0,0
14,0,0,0,0,0,516,70,0,0,0
15,0,0,0,0,3,518,67,0,0,0
0,0,0,0,0,0,518,68,0,0,0
1,0,0,0,0,0,517,70,0,0,0
2,0,0,0,0,0,510,70,0,0,0
3,0,0,0,0,3,507,68,0,0,0
4,0,0,0,0,0,506,70,0,0,0
5,0,0,0,0,0,505,70,0,0,0
6,0,0,0,0,0,501,68,0,0,0
7,0,0,0,0,3,505,69,0,0,0
8,0,0,0,0,0,508,70,0,0,0
9,0,0,0,0,0,523,70,0,0,0
10,0,0,0,0,0,532,67,0,0,0
11,0,0,0,0,3,537,69,0,0,0
12,0,0,0,0,1,530,70,0,0,0
13,0,0,0,0,0,528,70,0,0,0
14,0,0,0,0,0,528,69,0,0,0
15,0,0,0,0,3,531,69,0,0,0
0,0,0,0,0,0,530,70,0,0,0
1,0,0,0,0,0,526,69,0,0,0
2,0,0,0,0,1,491,68,0,0,0
3,0,0,0,0,3,435,67,0,0,0
4,0,0,0,0,0,468,70,0,0,0
5,0,0,0,0,0,572,69,0,0,0
6,0,0,0,0,0,529,68,0,0,0
7,0,0,0,0,3,488,70,0,0,0
8,0,0,0,0,0,510,67,0,0,0
9,0,0,0,0,0,513,69,0,0,0
10,0,0,0,0,0,511,70,0,0,0
11,0,0,0,0,3,513,70,0,0,0
12,0,0,0,0,0,508,68,0,0,0
13,0,0,0,0,0,509,67,0,0,0
14,0,0,0,0,0,504,70,0,0,0
15,0,0,0,0,3,503,70,0,0,0
0,0,0,0,0,0,496,67,0,0,0
1,0,0,0,0,0,500,70,0,0,0
2,0,0,0,0,0,497,70,0,0,0
3,0,0,0,0,0,499,69,0,0,0
4,0,0,0,0,1,494,67,0,0,0
5,0,0,0,0,0,495,67,0,0,0
6,0,0,0,0,0,490,68,0,0,0
7,0,0,0,0,3,488,67,0,0,0
8,0,0,0,0,0,486,68,0,0,0
9,0,0,0,0,0,488,70,0,0,0
10,0,0,0,0,0,493,67,0,0,0
11,0,0,0,0,3,494,70,0,0,0
12,0,0,0,0,0,498,67,0,0,0
13,0,0,0,0,0,504,70,0,0,0
14,0,0,0,0,0,512,68,0,0,0
15,0,0,0,0,3,520,69,0,0,0
0,0,0,0,0,0,524,69,0,0,0
1,0,0,0,0,0,528,70,0,0,0
2,0,0,0,0,0,529,70,0,0,0
3,0,0,0,0,3,530,70,0,0,0
4,0,0,0,0,0,528,70,0,0,0
5,0,0,0,0,0,524,67,0,0,0
6,0,0,0,0,0,521,68,0,0,0
7,0,0,0,0,3,521,70,0,0,0
8,0,0,0,0,0,517,69,0,0,0
9,0,0,0,0,0,516,70,0,0,0
10,0,0,0,0,0,515,67,0,0,0
11,0,0,0,0,3,517,69,0,0,0
12,0,0,0,0,0,511,70,0,0,0
13,0,0,0,0,0,511,68,0,0,0
14,0,0,0,0,0,511,68,0,0,0
15,0,0,0,0,3,515,67,0,0,0
0,0,0,0,0,0,512,69,0,0,0
1,0,0,0,0,0,515,70,0,0,0
2,0,0,0,0,0,514,69,0,0,0
3,0,0,0,0,3,518,67,0,0,0
4,0,0,0,0,0,517,69,0,0,0
5,0,0,0,0,0,518,69,0,0,0
6,0,0,0,0,0,516,70,0,0,0
7,0,0,0,0,3,516,69,0,0,0
8,0,0,0,0,0,512,70,0,0,0
9,0,0,0,0,0,514,69,0,0,0
10,0,0,0,0,0,512,67,0,0,0
11,0,0,0,0,3,512,69,0,0,0
12,0,0,0,0,0,510,69,0,0,0
13,0,0,0,0,0,507,70,0,0,0
14,0,0,0,0,0,506,70,0,0,0
15,0,0,0,0,0,507,69,0,0,0
0,0,0,0,0,0,504,67,0,0,0
1,0,0,0,0,0,507,68,0,0,0
2,0,0,0,0,0,506,70,0,0,0
3,0,0,0,0,3,510,70,0,0,0
4,0,0,0,0,0,507,67,0,0,0
5,0,0,0,0,0,511,70,0,0,0
6,0,0,0,0,0,508,70,0,0,0
7,0,0,0,0,3,513,70,0,0,0
8,0,0,0,0,0,509,70,0,0,0
9,0,0,0,0,0,497,69,0,0,0
10,0,0,0,0,0,497,67,0,0,0
11,0,0,0,0,3,499,68,0,0,0
12,0,0,0,0,0,502,70,0,0,0
13,0,0,0,0,0,511,70,0,0,0
14,0,0,0,0,0,519,69,0,0,0
15,0,0,0,0,3,522,67,0,0,0
0,0,0,0,0,0,518,68,0,0,0
1,0,0,0,0,0,515,69,0,0,0
2,0,0,0,0,0,513,70,0,0,0
3,0,0,0,0,3,519,70,0,0,0
4,0,0,0,0,0,522,68,0,0,0
5,0,0,0,0,0,513,69,0,0,0
6,0,0,0,0,0,457,70,0,0,0
7,0,0,0,0,3,432,70,0,0,0
8,0,0,0,0,0,499,68,0,0,0
9,0,0,0,0,0,590,69,0,0,0
10,0,0,0,0,0,505,70,0,0,0
11,0,0,0,0,3,497,70,0,0,0
12,0,0,0,0,0,519,68,0,0,0
13,0,0,0,0,0,522,68,0,0,0
14,0,0,0,0,0,521,70,0,0,0
15,0,0,0,0,3,522,70,0,0,0
0,0,0,0,0,0,519,70,0,0,0
1,0,0,0,0,0,521,68,0,0,0
2,0,0,0,0,0,517,68,0,0,0
3,0,0,0,0,3,515,67,0,0,0
4,0,0,0,0,0,510,70,0,0,0
5,0,0,0,0,0,510,70,0,0,0
6,0,0,0,0,0,504,69,0,0,0
7,0,0,0,0,3,503,67,0,0,0
8,0,0,0,0,0,500,70,0,0,0
9,0,0,0,0,0,495,69,0,0,0
10,0,0,0,0,0,487,70,0,0,0
11,0,0,0,0,0,487,70,0,0,0
12,0,0,0,0,0,489,68,0,0,0
13,0,0,0,0,0,491,67,0,0,0
14,0,0,0,0,0,491,69,0,0,0
15,0,0,0,0,3,492,70,0,0,0
0,0,0,0,0,0,495,68,0,0,0
1,0,0,0,0,0,502,68,0,0,0
2,0,0,0,0,0,506,69,0,0,0
3,0,0,0,0,3,518,68,0,0,0
4,0,0,0,0,0,523,70,0,0,0
5,0,0,0,0,0,527,70,0,0,0
6,0,0,0,0,0,526,69,0,0,0
7,0,0,0,0,3,522,70,0,0,0
8,0,0,0,0,0,518,70,0,0,0
9,0,0,0,0,0,516,70,0,0,0
10,0,0,0,0,0,516,68,0,0,0
11,0,0,0,0,3,518,69,0,0,0
12,0,0,0,0,0,515,70,0,0,0
13,0,0,0,0,0,517,70,0,0,0
14,0,0,0,0,0,515,71,0,0,0
15,0,0,0,0,0,518,68,0,0,0
0,0,0,0,0,0,515,70,0,0,0
1,0,0,0,0,0,515,69,0,0,0
2,0,0,0,0,0,515,68,0,0,0
3,0,0,0,0,3,519,70,0,0,0
4,0,0,0,0,0,513,71,0,0,0
5,0,0,0,0,0,515,69,0,0,0
6,0,0,0,0,0,514,69,0,0,0
7,0,0,0,0,3,509,70,0,0,0
8,0,0,0,0,0,508,70,0,0,0
9,0,0,0,0,0,507,69,0,0,0
10,0,0,0,0,0,506,68,0,0,0
11,0,0,0,0,3,505,69,0,0,0
12,0,0,0,0,0,502,70,0,0,0
13,0,0,0,0,0,509,70,0,0,0
14,0,0,0,0,0,512,70,0,0,0
15,0,0,0,0,3,513,68,0,0,0
0,0,0,0,0,0,511,69,0,0,0
1,0,0,0,0,0,512,70,0,0,0
2,0,0,0,0,0,511,71,0,0,0
3,0,0,0,0,3,515,68,0,0,0
4,0,0,0,0,0,510,70,0,0,0
5,0,0,0,0,0,510,70,0,0,0
6,0,0,0,0,0,507,68,0,0,0
7,0,0,0,0,3,510,69,0,0,0
8,0,0,0,0,0,509,70,0,0,0
9,0,0,0,0,0,511,68,0,0,0
10,0,0,0,0,0,510,69,0,0,0
11,0,0,0,0,3,504,69,0,0,0
12,0,0,0,0,0,503,68,0,0,0
13,0,0,0,0,0,502,67,0,0,0
14,0,0,0,0,0,491,68,0,0,0
15,0,0,0,0,3,497,70,0,0,0
0,0,0,0,0,0,495,70,0,0,0
1,0,0,0,0,0,502,69,0,0,0
2,0,0,0,0,0,509,70,0,0,0
3,0,0,0,0,3,516,70,0,0,0
4,0,0,0,0,0,512,68,0,0,0
5,0,0,0,0,0,508,68,0,0,0
6,0,0,0,0,0,506,68,0,0,0
7,0,0,0,0,3,511,70,0,0,0
8,0,0,0,0,0,506,70,0,0,0
9,0,0,0,0,0,510,71,0,0,0
10,0,0,0,0,0,499,71,0,0,0
11,0,0,0,0,0,437,71,0,0,0
12,0,0,0,0,0,420,70,0,0,0
13,0,0,0,0,0,504,71,0,0,0
14,0,0,0,0,0,583,71,0,0,0
15,0,0,0,0,3,504,70,0,0,0
0,0,0,0,0,0,504,71,0,0,0
1,0,0,0,0,0,521,71,0,0,0
2,0,0,0,0,0,517,71,0,0,0
3,0,0,0,0,3,515,74,0,0,0
4,0,0,0,0,0,506,75,0,0,0
5,0,0,0,0,0,507,76,0,0,0
6,0,0,0,0,0,504,76,0,0,0
7,0,0,0,0,3,502,76,0,0,0
8,0,0,0,0,0,499,76,0,0,0
9,0,0,0,0,0,497,76,0,0,0
10,0,0,0,0,0,490,78,0,0,0
11,0,0,0,0,3,482,78,0,0,0
12,0,0,0,0,0,476,79,0,0,0
13,0,0,0,0,0,476,78,0,0,0
14,0,0,0,0,0,469,79,0,0,0
15,0,0,0,0,3,468,79,0,0,0
0,0,0,0,0,0,464,78,0,0,0
1,0,0,0,0,0,466,78,0,0,0
2,0,0,0,0,0,467,79,0,0,0
3,0,0,0,0,3,471,79,0,0,0
4,0,0,0,0,0,470,79,0,0,0
5,0,0,0,0,0,469,80,0,0,0
6,0,0,0,0,0,478,80,0,0,0
7,0,0,0,0,3,492,82,0,0,0
8,0,0,0,0,0,503,82,0,0,0
9,0,0,0,0,0,512,80,0,0,0
10,0,0,0,0,0,512,80,0,0,0
11,0,0,0,0,3,512,82,0,0,0
12,0,0,0,0,0,508,82,0,0,0
13,0,0,0,0,0,508,83,0,0,0
14,0,0,0,0,0,505,83,0,0,0
15,0,0,0,0,3,503,81,0,0,0
0,0,0,0,0,0,505,80,0,0,0
1,0,0,0,0,0,511,82,0,0,0
2,0,0,0,0,0,509,83,0,0,0
3,0,0,0,0,3,512,81,0,0,0
4,0,0,0,0,0,509,80,0,0,0
5,0,0,0,0,0,509,81,0,0,0
6,0,0,0,0,0,507,80,0,0,0
7,0,0,0,0,0,512,81,0,0,0
8,0,0,0,0,0,510,80,0,0,0
9,0,0,0,0,0,512,80,0,0,0
10,0,0,0,0,0,513,80,0,0,0
11,0,0,0,0,3,513,81,0,0,0
12,0,0,0,0,0,511,82,0,0,0
13,0,0,0,0,0,511,82,0,0,0
14,0,0,0,0,0,509,82,0,0,0
15,0,0,0,0,3,508,82,0,0,0
0,0,0,0,0,0,506,82,0,0,0
1,0,0,0,0,0,506,82,0,0,0
2,0,0,0,0,0,506,82,0,0,0
3,0,0,0,0,3,509,82,0,0,0
4,0,0,0,0,0,512,81,0,0,0
5,0,0,0,0,0,513,79,0,0,0
6,0,0,0,0,0,513,81,0,0,0
7,0,0,0,0,3,517,82,0,0,0
8,0,0,0,0,0,519,81,0,0,0
9,0,0,0,0,0,524,81,0,0,0
10,0,0,0,0,0,523,80,0,0,0
11,0,0,0,0,3,527,79,0,0,0
12,0,0,0,0,0,527,80,0,0,0
13,0,0,0,0,0,529,81,0,0,0
14,0,0,0,0,0,527,81,0,0,0
15,0,0,0,0,3,527,82,0,0,0
0,0,0,0,0,0,524,80,0,0,0
1,0,0,0,0,0,524,80,0,0,0
2,0,0,0,0,0,521,82,0,0,0
3,0,0,0,0,3,523,81,0,0,0
4,0,0,0,0,0,523,80,0,0,0
5,0,0,0,0,0,526,79,0,0,0
6,0,0,0,0,0,537,79,0,0,0
7,0,0,0,0,3,542,79,0,0,0
8,0,0,0,0,0,539,81,0,0,0
9,0,0,0,0,0,541,81,0,0,0
10,0,0,0,0,0,536,80,0,0,0
11,0,0,0,0,3,534,81,0,0,0
12,0,0,0,0,0,529,79,0,0,0
13,0,0,0,0,0,534,79,0,0,0
14,0,0,0,0,0,531,79,0,0,0
15,0,0,0,0,3,491,79,0,0,0
0,0,0,0,0,0,446,80,0,0,0
1,0,0,0,0,0,499,81,0,0,0
2,0,0,0,0,0,599,81,0,0,0
3,0,0,0,0,0,532,80,0,0,0
4,0,0,0,0,0,506,80,0,0,0
5,0,0,0,0,0,534,81,0,0,0
6,0,0,0,0,0,536,80,0,0,0
7,0,0,0,0,3,539,79,0,0,0
8,0,0,0,0,0,539,78,0,0,0
9,0,0,0,0,0,534,80,0,0,0
10,0,0,0,0,0,534,80,0,0,0
11,0,0,0,0,3,538,80,0,0,0
12,0,0,0,0,0,532,80,0,0,0
13,0,0,0,0,0,530,80,0,0,0
14,0,0,0,0,0,527,80,0,0,0
15,0,0,0,0,3,527,79,0,0,0
0,0,0,0,0,0,521,79,0,0,0
1,0,0,0,0,0,523,79,0,0,0
2,0,0,0,0,0,513,80,0,0,0
3,0,0,0,0,3,508,80,0,0,0
4,0,0,0,0,0,500,79,0,0,0
5,0,0,0,0,0,496,78,0,0,0
6,0,0,0,0,0,495,78,0,0,0
7,0,0,0,0,3,495,79,0,0,0
8,0,0,0,0,0,490,79,0,0,0
9,0,0,0,0,0,489,79,0,0,0
10,0,0,0,0,0,484,78,0,0,0
11,0,0,0,0,3,496,78,0,0,0
12,0,0,0,0,0,510,78,0,0,0
13,0,0,0,0,0,518,79,0,0,0
14,0,0,0,0,0,522,78,0,0,0
15,0,0,0,0,3,526,78,0,0,0
0,0,0,0,0,0,523,78,0,0,0
1,0,0,0,0,0,525,78,0,0,0
2,0,0,0,0,0,524,79,0,0,0
3,0,0,0,0,3,527,80,0,0,0
4,0,0,0,0,0,521,79,0,0,0
5,0,0,0,0,0,520,79,0,0,0
6,0,0,0,0,0,517,78,0,0,0
7,0,0,0,0,3,515,77,0,0,0
8,0,0,0,0,0,510,79,0,0,0
9,0,0,0,0,0,508,78,0,0,0
10,0,0,0,0,0,505,80,0,0,0
11,0,0,0,0,3,509,77,0,0,0
12,0,0,0,0,0,510,78,0,0,0
13,0,0,0,0,0,512,78,0,0,0
14,0,0,0,0,0,508,77,0,0,0
15,0,0,0,0,0,510,77,0,0,0
0,0,0,0,0,0,509,77,0,0,0
1,0,0,0,0,0,514,79,0,0,0
2,0,0,0,0,0,512,79,0,0,0
3,0,0,0,0,3,511,78,0,0,0
4,0,0,0,0,0,509,77,0,0,0
5,0,0,0,0,0,507,77,0,0,0
6,0,0,0,0,0,503,78,0,0,0
7,0,0,0,0,3,503,79,0,0,0
8,0,0,0,0,0,504,79,0,0,0
9,0,0,0,0,0,504,79,0,0,0
10,0,0,0,0,0,499,78,0,0,0
11,0,0,0,0,3,500,79,0,0,0
12,0,0,0,0,0,499,77,0,0,0
13,0,0,0,0,0,501,78,0,0,0
14,0,0,0,0,0,501,79,0,0,0
15,0,0,0,0,3,502,78,0,0,0
0,0,0,0,0,0,500,77,0,0,0
1,0,0,0,0,0,501,78,0,0,0
2,0,0,0,0,0,504,79,0,0,0
3,0,0,0,0,3,500,79,0,0,0
4,0,0,0,0,0,494,78,0,0,0
5,0,0,0,0,0,494,77,0,0,0
6,0,0,0,0,0,486,79,0,0,0
7,0,0,0,0,3,492,79,0,0,0
8,0,0,0,0,0,496,79,0,0,0
9,0,0,0,0,0,499,79,0,0,0
10,0,0,0,0,0,507,79,0,0,0
11,0,0,0,0,3,511,79,0,0,0
12,0,0,0,0,0,506,79,0,0,0
13,0,0,0,0,0,504,79,0,0,0
14,0,0,0,0,0,505,79,0,0,0
15,0,0,0,0,3,504,77,0,0,0
0,0,0,0,0,0,504,78,0,0,0
1,0,0,0,0,0,510,79,0,0,0
2,0,0,0,0,0,500,79,0,0,0
3,0,0,0,0,3,437,79,0,0,0
4,0,0,0,0,0,419,79,0,0,0
5,0,0,0,0,0,502,78,0,0,0
6,0,0,0,0,0,575,78,0,0,0
7,0,0,0,0,3,496,79,0,0,0
8,0,0,0,0,0,487,79,0,0,0
9,0,0,0,0,0,505,79,0,0,0
10,0,0,0,0,0,508,79,0,0,0
11,0,0,0,0,0,509,79,0,0,0
12,0,0,0,0,0,509,79,0,0,0
13,0,0,0,0,0,508,77,0,0,0
14,0,0,0,0,0,506,78,0,0,0
15,0,0,0,0,3,504,79,0,0,0
0,0,0,0,0,0,499,76,0,0,0
1,0,0,0,0,0,498,77,0,0,0
2,0,0,0,0,0,494,79,0,0,0
3,0,0,0,0,3,494,79,0,0,0
4,0,0,0,0,0,489,79,0,0,0
5,0,0,0,0,0,486,79,0,0,0
6,0,0,0,0,0,480,78,0,0,0
7,0,0,0,0,3,482,78,0,0,0
8,0,0,0,0,0,483,76,0,0,0
9,0,0,0,0,0,484,77,0,0,0
10,0,0,0,0,0,478,79,0,0,0
11,0,0,0,0,3,485,79,0,0,0
12,0,0,0,0,0,488,79,0,0,0
13,0,0,0,0,0,493,78,0,0,0
14,0,0,0,0,0,502,77,0,0,0
15,0,0,0,0,3,512,76,0,0,0
0,0,0,0,0,0,522,78,0,0,0
1,0,0,0,0,0,527,79,0,0,0
2,0,0,0,0,0,529,79,0,0,0
3,0,0,0,0,3,531,76,0,0,0
4,0,0,0,0,0,529,76,0,0,0
5,0,0,0,0,0,534,76,0,0,0
6,0,0,0,0,0,531,78,0,0,0
7,0,0,0,0,3,527,79,0,0,0
8,0,0,0,0,0,518,78,0,0,0
9,0,0,0,0,0,511,78,0,0,0
10,0,0,0,0,0,518,76,0,0,0
11,0,0,0,0,3,522,77,0,0,0
12,0,0,0,0,0,522,78,0,0,0
13,0,0,0,0,0,531,78,0,0,0
14,0,0,0,0,0,530,78,0,0,0
15,0,0,0,0,3,524,78,0,0,0
0,0,0,0,0,0,524,78,0,0,0
1,0,0,0,0,0,523,78,0,0,0
2,0,0,0,0,0,523,78,0,0,0
3,0,0,0,0,3,528,76,0,0,0
4,0,0,0,0,0,530,77,0,0,0
5,0,0,0,0,0,535,78,0,0,0
6,0,0,0,0,0,533,76,0,0,0
7,0,0,0,0,0,526,76,0,0,0
8,0,0,0,0,0,523,76,0,0,0
9,0,0,0,0,0,516,78,0,0,0
10,0,0,0,0,0,521,78,0,0,0
11,0,0,0,0,3,523,76,0,0,0
12,0,0,0,0,0,530,75,0,0,0
13,0,0,0,0,0,539,77,0,0,0
14,0,0,0,0,0,547,76,0,0,0
15,0,0,0,0,3,547,75,0,0,0
0,0,0,0,0,0,543,75,0,0,0
1,0,0,0,0,0,553,75,0,0,0
2,0,0,0,0,0,538,78,0,0,0
3,0,0,0,0,3,532,77,0,0,0
4,0,0,0,0,0,538,76,0,0,0
5,0,0,0,0,0,533,75,0,0,0
6,0,0,0,0,0,526,75,0,0,0
7,0,0,0,0,3,537,75,0,0,0
8,0,0,0,0,0,543,75,0,0,0
9,0,0,0,0,0,545,74,0,0,0
10,0,0,0,0,0,549,75,0,0,0
11,0,0,0,0,1,538,76,0,0,0
12,0,0,0,0,0,533,73,0,0,0
13,0,0,0,0,0,527,75,0,0,0
14,0,0,0,0,0,519,75,0,0,0
15,0,0,0,0,3,493,75,0,0,0
0,0,0,0,0,0,441,73,0,0,0
1,0,0,0,0,0,468,73,0,0,0
2,0,0,0,0,0,529,75,0,0,0
3,0,0,0,0,3,567,73,0,0,0
4,0,0,0,0,0,507,73,0,0,0
5,0,0,0,0,0,510,74,0,0,0
6,0,0,0,0,0,510,73,0,0,0
7,0,0,0,0,3,507,72,0,0,0
8,0,0,0,0,0,503,70,0,0,0
9,0,0,0,0,0,497,71,0,0,0
10,0,0,0,0,0,499,71,0,0,0
11,0,0,0,0,3,505,72,0,0,0
12,0,0,0,0,0,509,71,0,0,0
13,0,0,0,0,0,508,71,0,0,0
14,0,0,0,0,0,507,70,0,0,0
15,0,0,0,0,3,502,71,0,0,0
0,0,0,0,0,0,503,71,0,0,0
1,0,0,0,0,0,502,71,0,0,0
2,0,0,0,0,0,501,71,0,0,0
3,0,0,0,0,3,499,70,0,0,0
4,0,0,0,0,0,500,71,0,0,0
5,0,0,0,0,0,503,69,0,0,0
6,0,0,0,0,0,499,68,0,0,0
7,0,0,0,0,3,500,70,0,0,0
8,0,0,0,0,0,500,69,0,0,0
9,0,0,0,0,0,505,70,0,0,0
10,0,0,0,0,0,514,68,0,0,0
11,0,0,0,0,3,523,67,0,0,0
12,0,0,0,0,0,529,69,0,0,0
13,0,0,0,0,0,532,69,0,0,0
14,0,0,0,0,0,527,68,0,0,0
15,0,0,0,0,3,527,69,0,0,0
0,0,0,0,0,0,514,69,0,0,0
1,0,0,0,0,0,508,68,0,0,0
2,0,0,0,0,0,498,67,0,0,0
3,0,0,0,0,3,496,67,0,0,0
4,0,0,0,0,0,493,68,0,0,0
5,0,0,0,0,0,497,68,0,0,0
6,0,0,0,0,0,496,69,0,0,0
7,0,0,0,0,0,492,66,0,0,0
8,0,0,0,0,0,493,66,0,0,0
9,0,0,0,0,0,494,68,0,0,0
10,0,0,0,0,0,492,67,0,0,0
11,0,0,0,0,3,492,66,0,0,0
12,0,0,0,0,0,492,66,0,0,0
13,0,0,0,0,0,496,65,0,0,0
14,0,0,0,0,0,498,67,0,0,0
15,0,0,0,0,3,501,68,0,0,0
0,0,0,0,0,0,505,68,0,0,0
1,0,0,0,0,0,514,68,0,0,0
2,0,0,0,0,0,519,68,0,0,0
3,0,0,0,0,3,520,68,0,0,0
4,0,0,0,0,0,517,68,0,0,0
5,0,0,0,0,0,518,67,0,0,0
6,0,0,0,0,0,517,67,0,0,0
7,0,0,0,0,3,524,66,0,0,0
8,0,0,0,0,0,523,66,0,0,0
9,0,0,0,0,0,528,67,0,0,0
10,0,0,0,0,0,530,66,0,0,0
11,0,0,0,0,3,525,67,0,0,0
12,0,0,0,0,0,521,67,0,0,0
13,0,0,0,0,0,521,67,0,0,0
14,0,0,0,0,0,519,65,0,0,0
15,0,0,0,0,3,534,65,0,0,0
0,0,0,0,0,0,536,65,0,0,0
1,0,0,0,0,0,534,66,0,0,0
2,0,0,0,0,0,527,67,0,0,0
3,0,0,0,0,3,524,65,0,0,0
4,0,0,0,0,0,522,65,0,0,0
5,0,0,0,0,0,524,65,0,0,0
6,0,0,0,0,0,524,66,0,0,0
7,0,0,0,0,3,516,67,0,0,0
8,0,0,0,0,0,464,66,0,0,0
9,0,0,0,0,0,475,67,0,0,0
10,0,0,0,0,0,521,67,0,0,0
11,0,0,0,0,3,568,67,0,0,0
12,0,0,0,0,0,499,64,0,0,0
13,0,0,0,0,0,498,66,0,0,0
14,0,0,0,0,0,506,67,0,0,0
15,0,0,0,0,3,507,67,0,0,0
0,0,0,0,0,0,502,66,0,0,0
1,0,0,0,0,0,496,66,0,0,0
2,0,0,0,0,0,498,66,0,0,0
3,0,0,0,0,0,504,65,0,0,0
4,0,0,0,0,0,499,65,0,0,0
5,0,0,0,0,0,496,67,0,0,0
6,0,0,0,0,0,491,67,0,0,0
7,0,0,0,0,3,488,66,0,0,0
8,0,0,0,0,0,478,65,0,0,0
9,0,0,0,0,0,469,67,0,0,0
10,0,0,0,0,0,470,67,0,0,0
11,0,0,0,0,3,465,67,0,0,0
12,0,0,0,0,0,471,64,0,0,0
13,0,0,0,0,0,473,66,0,0,0
14,0,0,0,0,0,475,66,0,0,0
15,0,0,0,0,3,485,64,0,0,0
0,0,0,0,0,0,493,65,0,0,0
1,0,0,0,0,0,508,64,0,0,0
2,0,0,0,0,0,523,65,0,0,0
3,0,0,0,0,3,540,66,0,0,0
4,0,0,0,0,0,543,66,0,0,0
5,0,0,0,0,0,544,66,0,0,0
6,0,0,0,0,0,534,64,0,0,0
7,0,0,0,0,3,530,67,0,0,0
8,0,0,0,0,0,524,66,0,0,0
9,0,0,0,0,0,519,64,0,0,0
10,0,0,0,0,0,522,64,0,0,0
11,0,0,0,0,3,519,65,0,0,0
12,0,0,0,0,0,519,65,0,0,0
13,0,0,0,0,0,522,67,0,0,0
14,0,0,0,0,0,518,66,0,0,0
15,0,0,0,0,3,503,65,0,0,0
0,0,0,0,0,0,506,66,0,0,0
1,0,0,0,0,0,512,67,0,0,0
2,0,0,0,0,0,513,66,0,0,0
3,0,0,0,0,3,518,66,0,0,0
4,0,0,0,0,0,524,66,0,0,0
5,0,0,0,0,0,527,66,0,0,0
6,0,0,0,0,0,524,65,0,0,0
7,0,0,0,0,3,523,65,0,0,0
8,0,0,0,0,0,524,64,0,0,0
9,0,0,0,0,0,524,64,0,0,0
10,0,0,0,0,0,524,66,0,0,0
11,0,0,0,0,3,529,65,0,0,0
12,0,0,0,0,0,526,66,0,0,0
13,0,0,0,0,0,529,66,0,0,0
14,0,0,0,0,0,525,66,0,0,0
15,0,0,0,0,0,524,66,0,0,0
0,0,0,0,0,0,520,66,0,0,0
1,0,0,0,0,0,515,65,0,0,0
2,0,0,0,0,0,506,67,0,0,0
3,0,0,0,0,3,506,66,0,0,0
4,0,0,0,0,0,504,65,0,0,0
5,0,0,0,0,0,488,64,0,0,0
6,0,0,0,0,0,476,65,0,0,0
7,0,0,0,0,3,482,64,0,0,0
8,0,0,0,0,0,485,66,0,0,0
9,0,0,0,0,0,497,66,0,0,0
10,0,0,0,0,0,500,64,0,0,0
11,0,0,0,0,3,500,65,0,0,0
12,0,0,0,0,0,496,67,0,0,0
13,0,0,0,0,0,496,66,0,0,0
14,0,0,0,0,0,499,66,0,0,0
15,0,0,0,0,3,507,66,0,0,0
0,0,0,0,0,0,515,64,0,0,0
1,0,0,0,0,0,503,64,0,0,0
2,0,0,0,0,0,466,66,0,0,0
3,0,0,0,0,3,431,66,0,0,0
4,0,0,0,0,0,468,66,0,0,0
5,0,0,0,0,0,547,66,0,0,0
6,0,0,0,0,0,505,65,0,0,0
7,0,0,0,0,3,483,65,0,0,0
8,0,0,0,0,1,498,65,0,0,0
9,0,0,0,0,0,498,63,0,0,0
10,0,0,0,0,0,512,64,0,0,0
11,0,0,0,0,3,521,64,0,0,0
12,0,0,0,0,1,530,63,0,0,0
13,0,0,0,0,0,544,64,0,0,0
14,0,0,0,0,0,542,66,0,0,0
15,0,0,0,0,3,542,63,0,0,0
0,0,0,0,0,0,544,65,0,0,0
1,0,0,0,0,0,548,65,0,0,0
2,0,0,0,0,0,536,64,0,0,0
3,0,0,0,0,3,529,64,0,0,0
4,0,0,0,0,0,518,65,0,0,0
5,0,0,0,0,0,518,63,0,0,0
6,0,0,0,0,0,531,64,0,0,0
7,0,0,0,0,3,536,66,0,0,0
8,0,0,0,0,0,532,66,0,0,0
9,0,0,0,0,0,517,66,0,0,0
10,0,0,0,0,0,502,66,0,0,0
11,0,0,0,0,1,492,66,0,0,0
12,0,0,0,0,0,487,66,0,0,0
13,0,0,0,0,0,494,65,0,0,0
14,0,0,0,0,1,497,66,0,0,0
15,0,0,0,0,3,510,64,0,0,0
0,0,0,0,0,0,518,64,0,0,0
1,0,0,0,0,0,520,65,0,0,0
2,0,0,0,0,0,519,66,0,0,0
3,0,0,0,0,3,520,64,0,0,0
4,0,0,0,0,0,517,64,0,0,0
5,0,0,0,0,0,525,65,0,0,0
6,0,0,0,0,0,524,67,0,0,0
7,0,0,0,0,3,523,64,0,0,0
8,0,0,0,0,0,508,66,0,0,0
9,0,0,0,0,0,498,67,0,0,0
10,0,0,0,0,1,495,66,0,0,0
11,0,0,0,0,3,500,65,0,0,0
12,0,0,0,0,0,502,65,0,0,0
13,0,0,0,0,0,505,64,0,0,0
14,0,0,0,0,0,501,65,0,0,0
15,0,0,0,0,3,505,65,0,0,0
0,0,0,0,0,1,508,64,0,0,0
1,0,0,0,0,0,509,64,0,0,0
2,0,0,0,0,0,507,66,0,0,0
3,0,0,0,0,3,506,66,0,0,0
4,0,0,0,0,0,506,66,0,0,0
5,0,0,0,0,0,507,66,0,0,0
6,0,0,0,0,1,504,65,0,0,0
7,0,0,0,0,3,506,65,0,0,0
8,0,0,0,0,0,502,64,0,0,0
9,0,0,0,0,0,496,66,0,0,0
10,0,0,0,0,0,496,67,0,0,0
11,0,0,0,0,3,499,66,0,0,0
12,0,0,0,0,0,497,64,0,0,0
13,0,0,0,0,0,499,66,0,0,0
14,0,0,0,0,0,497,66,0,0,0
15,0,0,0,0,3,496,67,0,0,0
0,0,0,0,0,0,496,67,0,0,0
1,0,0,0,0,0,498,67,0,0,0
2,0,0,0,0,1,498,67,0,0,0
3,0,0,0,0,3,506,65,0,0,0
4,0,0,0,0,0,504,64,0,0,0
5,0,0,0,0,0,501,65,0,0,0
6,0,0,0,0,0,497,64,0,0,0
7,0,0,0,0,0,503,65,0,0,0
8,0,0,0,0,1,497,66,0,0,0
9,0,0,0,0,0,507,67,0,0,0
10,0,0,0,0,0,505,66,0,0,0
11,0,0,0,0,3,513,67,0,0,0
12,0,0,0,0,0,519,67,0,0,0
13,0,0,0,0,0,523,67,0,0,0
14,0,0,0,0,1,523,64,0,0,0
15,0,0,0,0,3,519,67,0,0,0
0,0,0,0,0,0,511,65,0,0,0
1,0,0,0,0,0,506,67,0,0,0
2,0,0,0,0,0,503,64,0,0,0
3,0,0,0,0,3,507,67,0,0,0
4,0,0,0,0,0,503,66,0,0,0
5,0,0,0,0,0,456,66,0,0,0
6,0,0,0,0,0,416,66,0,0,0
7,0,0,0,0,3,477,66,0,0,0
8,0,0,0,0,0,575,66,0,0,0
9,0,0,0,0,0,515,65,0,0,0
10,0,0,0,0,1,507,66,0,0,0
11,0,0,0,0,3,527,67,0,0,0
12,0,0,0,0,0,532,67,0,0,0
13,0,0,0,0,0,536,64,0,0,0
14,0,0,0,0,0,530,67,0,0,0
15,0,0,0,0,3,529,65,0,0,0
0,0,0,0,0,0,524,66,0,0,0
1,0,0,0,0,0,522,67,0,0,0
2,0,0,0,0,0,518,65,0,0,0
3,0,0,0,0,3,522,67,0,0,0
4,0,0,0,0,0,522,67,0,0,0
5,0,0,0,0,0,522,65,0,0,0
6,0,0,0,0,0,516,65,0,0,0
7,0,0,0,0,3,522,67,0,0,0
8,0,0,0,0,0,518,65,0,0,0
9,0,0,0,0,0,508,66,0,0,0
10,0,0,0,0,0,496,67,0,0,0
11,0,0,0,0,3,490,65,0,0,0
12,0,0,0,0,1,480,66,0,0,0
13,0,0,0,0,0,478,67,0,0,0
14,0,0,0,0,0,484,66,0,0,0
15,0,0,0,0,3,498,67,0,0,0
0,0,0,0,0,0,507,67,0,0,0
1,0,0,0,0,0,521,67,0,0,0
2,0,0,0,0,1,534,65,0,0,0
3,0,0,0,0,0,540,65,0,0,0
4,0,0,0,0,0,543,64,0,0,0
5,0,0,0,0,0,544,66,0,0,0
6,0,0,0,0,0,542,66,0,0,0
7,0,0,0,0,3,539,67,0,0,0
8,0,0,0,0,1,532,66,0,0,0
9,0,0,0,0,0,530,67,0,0,0
10,0,0,0,0,0,527,67,0,0,0
11,0,0,0,0,3,523,66,0,0,0
12,0,0,0,0,0,520,65,0,0,0
13,0,0,0,0,0,523,64,0,0,0
14,0,0,0,0,1,520,64,0,0,0
15,0,0,0,0,3,515,66,0,0,0
0,0,0,0,0,0,514,67,0,0,0
1,0,0,0,0,0,516,66,0,0,0
2,0,0,0,0,0,508,67,0,0,0
3,0,0,0,0,3,508,66,0,0,0
4,0,0,0,0,1,507,64,0,0,0
5,0,0,0,0,0,512,64,0,0,0
6,0,0,0,0,0,510,65,0,0,0
7,0,0,0,0,1,510,66,0,0,0
8,0,0,0,0,0,511,67,0,0,0
9,0,0,0,0,0,513,66,0,0,0
10,0,0,0,0,1,511,65,0,0,0
11,0,0,0,0,3,512,67,0,0,0
12,0,0,0,0,0,508,67,0,0,0
13,0,0,0,0,0,507,67,0,0,0
14,0,0,0,0,0,505,65,0,0,0
15,0,0,0,0,3,509,66,0,0,0
0,0,0,0,0,1,509,67,0,0,0
1,0,0,0,0,0,512,66,0,0,0
2,0,0,0,0,0,510,66,0,0,0
3,0,0,0,0,3,512,64,0,0,0
4,0,0,0,0,0,511,65,0,0,0
5,0,0,0,0,0,511,66,0,0,0
6,0,0,0,0,0,504,67,0,0,0
7,0,0,0,0,3,501,67,0,0,0
8,0,0,0,0,0,498,65,0,0,0
9,0,0,0,0,0,500,65,0,0,0
10,0,0,0,0,0,499,67,0,0,0
11,0,0,0,0,3,499,67,0,0,0
12,0,0,0,0,1,499,67,0,0,0
13,0,0,0,0,0,501,67,0,0,0
14,0,0,0,0,0,496,67,0,0,0
15,0,0,0,0,3,496,67,0,0,0
0,0,0,0,0,0,492,67,0,0,0
1,0,0,0,0,0,495,67,0,0,0
2,0,0,0,0,1,495,67,0,0,0
3,0,0,0,0,3,495,66,0,0,0
4,0,0,0,0,0,498,66,0,0,0
5,0,0,0,0,0,504,66,0,0,0
6,0,0,0,0,0,512,67,0,0,0
7,0,0,0,0,3,513,67,0,0,0
8,0,0,0,0,1,512,67,0,0,0
9,0,0,0,0,0,506,65,0,0,0
10,0,0,0,0,0,505,65,0,0,0
11,0,0,0,0,3,501,64,0,0,0
12,0,0,0,0,0,501,66,0,0,0
13,0,0,0,0,0,500,65,0,0,0
14,0,0,0,0,1,504,65,0,0,0
15,0,0,0,0,3,513,65,0,0,0
0,0,0,0,0,0,514,64,0,0,0
1,0,0,0,0,0,527,66,0,0,0
2,0,0,0,0,0,529,67,0,0,0
3,0,0,0,0,0,531,65,0,0,0
4,0,0,0,0,1,527,64,0,0,0
5,0,0,0,0,0,523,67,0,0,0
6,0,0,0,0,0,518,67,0,0,0
7,0,0,0,0,3,521,66,0,0,0
8,0,0,0,0,0,524,64,0,0,0
9,0,0,0,0,0,535,65,0,0,0
10,0,0,0,0,0,511,66,0,0,0
11,0,0,0,0,3,443,65,0,0,0
12,0,0,0,0,0,455,66,0,0,0
13,0,0,0,0,0,548,67,0,0,0
14,0,0,0,0,0,548,67,0,0,0
15,0,0,0,0,3,496,66,0,0,0
0,0,0,0,0,0,514,67,0,0,0
1,0,0,0,0,0,529,67,0,0,0
2,0,0,0,0,0,531,64,0,0,0
3,0,0,0,0,3,530,66,0,0,0
4,0,0,0,0,0,529,67,0,0,0
5,0,0,0,0,0,526,67,0,0,0
6,0,0,0,0,0,522,65,0,0,0
7,0,0,0,0,3,518,65,0,0,0
8,0,0,0,0,0,512,66,0,0,0
9,0,0,0,0,0,510,66,0,0,0
10,0,0,0,0,0,506,67,0,0,0
11,0,0,0,0,3,508,67,0,0,0
12,0,0,0,0,1,503,67,0,0,0
13,0,0,0,0,0,503,67,0,0,0
14,0,0,0,0,0,502,65,0,0,0
15,0,0,0,0,3,505,66,0,0,0
0,0,0,0,0,0,499,67,0,0,0
1,0,0,0,0,0,493,66,0,0,0
2,0,0,0,0,0,498,66,0,0,0
3,0,0,0,0,3,504,65,0,0,0
4,0,0,0,0,0,502,65,0,0,0
5,0,0,0,0,0,505,66,0,0,0
6,0,0,0,0,0,513,65,0,0,0
7,0,0,0,0,3,522,66,0,0,0
8,0,0,0,0,1,530,67,0,0,0
9,0,0,0,0,0,534,66,0,0,0
10,0,0,0,0,0,532,65,0,0,0
11,0,0,0,0,3,532,64,0,0,0
12,0,0,0,0,0,526,65,0,0,0
13,0,0,0,0,0,522,67,0,0,0
14,0,0,0,0,0,517,66,0,0,0
15,0,0,0,0,0,513,67,0,0,0
0,0,0,0,0,0,506,67,0,0,0
1,0,0,0,0,0,503,66,0,0,0
2,0,0,0,0,0,501,64,0,0,0
3,0,0,0,0,3,501,64,0,0,0
4,0,0,0,0,0,500,65,0,0,0
5,0,0,0,0,0,499,67,0,0,0
6,0,0,0,0,0,497,65,0,0,0
7,0,0,0,0,3,502,64,0,0,0
8,0,0,0,0,0,499,66,0,0,0
9,0,0,0,0,0,504,67,0,0,0
10,0,0,0,0,0,505,65,0,0,0
11,0,0,0,0,3,512,65,0,0,0
12,0,0,0,0,0,510,66,0,0,0
13,0,0,0,0,0,513,65,0,0,0
14,0,0,0,0,0,515,65,0,0,0
15,0,0,0,0,3,514,67,0,0,0
0,0,0,0,0,0,514,64,0,0,0
1,0,0,0,0,0,515,66,0,0,0
2,0,0,0,0,0,515,66,0,0,0
3,0,0,0,0,3,519,64,0,0,0
4,0,0,0,0,0,521,66,0,0,0
5,0,0,0,0,0,523,67,0,0,0
6,0,0,0,0,0,519,65,0,0,0
7,0,0,0,0,3,520,64,0,0,0
8,0,0,0,0,0,517,64,0,0,0
9,0,0,0,0,0,518,66,0,0,0
10,0,0,0,0,0,516,66,0,0,0
11,0,0,0,0,3,515,65,0,0,0
12,0,0,0,0,1,518,66,0,0,0
13,0,0,0,0,0,518,64,0,0,0
14,0,0,0,0,0,520,67,0,0,0
15,0,0,0,0,3,524,66,0,0,0
0,0,0,0,0,0,524,64,0,0,0
1,0,0,0,0,0,522,65,0,0,0
2,0,0,0,0,0,517,66,0,0,0
3,0,0,0,0,3,512,65,0,0,0
4,0,0,0,0,0,508,65,0,0,0
5,0,0,0,0,0,509,66,0,0,0
6,0,0,0,0,0,506,64,0,0,0
7,0,0,0,0,3,504,66,0,0,0
8,0,0,0,0,0,501,66,0,0,0
9,0,0,0,0,0,504,66,0,0,0
10,0,0,0,0,0,505,66,0,0,0
11,0,0,0,0,1,511,65,0,0,0
12,0,0,0,0,0,510,64,0,0,0
13,0,0,0,0,0,509,66,0,0,0
14,0,0,0,0,0,506,67,0,0,0
15,0,0,0,0,3,504,64,0,0,0
0,0,0,0,0,0,500,66,0,0,0
1,0,0,0,0,0,499,66,0,0,0
2,0,0,0,0,0,502,64,0,0,0
3,0,0,0,0,3,508,67,0,0,0
4,0,0,0,0,0,504,64,0,0,0
5,0,0,0,0,0,515,66,0,0,0
6,0,0,0,0,0,524,64,0,0,0
7,0,0,0,0,3,531,67,0,0,0
8,0,0,0,0,0,531,64,0,0,0
9,0,0,0,0,0,528,66,0,0,0
10,0,0,0,0,1,526,65,0,0,0
11,0,0,0,0,3,526,66,0,0,0
12,0,0,0,0,0,533,65,0,0,0
13,0,0,0,0,0,542,66,0,0,0
14,0,0,0,0,0,511,63,0,0,0
15,0,0,0,0,3,447,66,0,0,0
0,0,0,0,0,0,466,63,0,0,0
1,0,0,0,0,0,567,66,0,0,0
2,0,0,0,0,0,557,63,0,0,0
3,0,0,0,0,3,506,64,0,0,0
4,0,0,0,0,0,522,66,0,0,0
5,0,0,0,0,0,527,66,0,0,0
6,0,0,0,0,0,526,67,0,0,0
7,0,0,0,0,3,528,66,0,0,0
8,0,0,0,0,0,524,66,0,0,0
9,0,0,0,0,0,522,65,0,0,0
10,0,0,0,0,0,519,65,0,0,0
11,0,0,0,0,3,516,66,0,0,0
12,0,0,0,0,0,516,65,0,0,0
13,0,0,0,0,0,515,64,0,0,0
14,0,0,0,0,0,505,64,0,0,0
15,0,0,0,0,3,501,66,0,0,0
0,0,0,0,0,0,498,65,0,0,0
1,0,0,0,0,0,496,65,0,0,0
2,0,0,0,0,0,492,63,0,0,0
3,0,0,0,0,3,487,65,0,0,0
4,0,0,0,0,0,478,66,0,0,0
5,0,0,0,0,0,474,66,0,0,0
6,0,0,0,0,0,472,66,0,0,0
7,0,0,0,0,0,475,66,0,0,0
8,0,0,0,0,0,476,66,0,0,0
9,0,0,0,0,0,484,66,0,0,0
10,0,0,0,0,0,492,66,0,0,0
11,0,0,0,0,3,503,65,0,0,0
12,0,0,0,0,0,513,63,0,0,0
13,0,0,0,0,0,521,64,0,0,0
14,0,0,0,0,0,523,63,0,0,0
15,0,0,0,0,3,522,65,0,0,0
0,0,0,0,0,0,526,66,0,0,0
1,0,0,0,0,0,521,66,0,0,0
2,0,0,0,0,0,516,63,0,0,0
3,0,0,0,0,3,510,63,0,0,0
4,0,0,0,0,0,502,64,0,0,0
5,0,0,0,0,0,499,66,0,0,0
6,0,0,0,0,0,497,65,0,0,0
7,0,0,0,0,3,497,63,0,0,0
8,0,0,0,0,0,501,63,0,0,0
9,0,0,0,0,0,508,65,0,0,0
10,0,0,0,0,0,513,66,0,0,0
11,0,0,0,0,3,516,66,0,0,0
12,0,0,0,0,0,510,65,0,0,0
13,0,0,0,0,0,508,64,0,0,0
14,0,0,0,0,0,502,66,0,0,0
15,0,0,0,0,3,501,63,0,0,0
0,0,0,0,0,0,502,66,0,0,0
1,0,0,0,0,0,503,64,0,0,0
2,0,0,0,0,0,505,65,0,0,0
3,0,0,0,0,3,508,66,0,0,0
4,0,0,0,0,0,513,63,0,0,0
5,0,0,0,0,0,514,66,0,0,0
6,0,0,0,0,0,521,64,0,0,0
7,0,0,0,0,3,523,65,0,0,0
8,0,0,0,0,0,517,66,0,0,0
9,0,0,0,0,0,516,67,0,0,0
10,0,0,0,0,0,507,65,0,0,0
11,0,0,0,0,3,498,65,0,0,0
12,0,0,0,0,0,498,65,0,0,0
13,0,0,0,0,0,501,66,0,0,0
14,0,0,0,0,0,496,64,0,0,0
15,0,0,0,0,3,490,64,0,0,0
0,0,0,0,0,0,486,67,0,0,0
1,0,0,0,0,0,489,65,0,0,0
2,0,0,0,0,1,482,64,0,0,0
3,0,0,0,0,0,487,66,0,0,0
4,0,0,0,0,0,497,67,0,0,0
5,0,0,0,0,0,500,64,0,0,0
6,0,0,0,0,0,500,67,0,0,0
7,0,0,0,0,3,496,65,0,0,0
8,0,0,0,0,0,492,64,0,0,0
9,0,0,0,0,0,497,67,0,0,0
10,0,0,0,0,0,480,64,0,0,0
11,0,0,0,0,3,466,66,0,0,0
12,0,0,0,0,0,499,67,0,0,0
13,0,0,0,0,0,501,67,0,0,0
14,0,0,0,0,0,502,65,0,0,0
15,0,0,0,0,3,508,66,0,0,0
0,0,0,0,0,0,501,67,0,0,0
1,0,0,0,0,0,496,67,0,0,0
2,0,0,0,0,0,492,65,0,0,0
3,0,0,0,0,3,490,64,0,0,0
4,0,0,0,0,0,486,65,0,0,0
5,0,0,0,0,0,496,65,0,0,0
6,0,0,0,0,0,493,67,0,0,0
7,0,0,0,0,3,519,67,0,0,0
8,0,0,0,0,0,537,65,0,0,0
9,0,0,0,0,0,532,67,0,0,0
10,0,0,0,0,0,534,68,0,0,0
11,0,0,0,0,3,533,68,0,0,0
12,0,0,0,0,0,533,67,0,0,0
13,0,0,0,0,0,520,67,0,0,0
14,0,0,0,0,0,504,66,0,0,0
15,0,0,0,0,3,511,66,0,0,0
0,0,0,0,0,0,435,67,0,0,0
1,0,0,0,0,0,412,68,0,0,0
2,0,0,0,0,0,498,67,0,0,0
3,0,0,0,0,3,575,67,0,0,0
4,0,0,0,0,0,489,68,0,0,0
5,0,0,0,0,0,484,67,0,0,0
6,0,0,0,0,0,495,66,0,0,0
7,0,0,0,0,3,524,67,0,0,0
8,0,0,0,0,0,499,68,0,0,0
9,0,0,0,0,0,512,67,0,0,0
10,0,0,0,0,0,520,67,0,0,0
11,0,0,0,0,3,506,68,0,0,0
12,0,0,0,0,0,515,68,0,0,0
13,0,0,0,0,0,516,67,0,0,0
14,0,0,0,0,0,540,66,0,0,0
15,0,0,0,0,0,537,68,0,0,0
0,0,0,0,0,0,500,68,0,0,0
1,0,0,0,0,0,504,67,0,0,0
2,0,0,0,0,0,493,66,0,0,0
3,0,0,0,0,3,533,67,0,0,0
4,0,0,0,0,0,522,67,0,0,0
5,0,0,0,0,0,511,65,0,0,0
6,0,0,0,0,0,494,67,0,0,0
7,0,0,0,0,3,504,65,0,0,0
8,0,0,0,0,0,512,68,0,0,0
9,0,0,0,0,0,520,65,0,0,0
10,0,0,0,0,0,530,68,0,0,0
11,0,0,0,0,3,523,67,0,0,0
12,0,0,0,0,0,534,67,0,0,0
13,0,0,0,0,0,536,68,0,0,0
14,0,0,0,0,0,513,68,0,0,0
15,0,0,0,0,3,520,67,0,0,0
0,0,0,0,0,0,545,67,0,0,0
1,0,0,0,0,0,542,65,0,0,0
2,0,0,0,0,0,563,67,0,0,0
3,0,0,0,0,0,524,67,0,0,0
4,0,0,0,0,0,523,67,0,0,0
5,0,0,0,0,0,523,65,0,0,0
6,0,0,0,0,0,531,68,0,0,0
7,0,0,0,0,3,533,65,0,0,0
8,0,0,0,0,0,528,67,0,0,0
9,0,0,0,0,0,539,67,0,0,0
10,0,0,0,0,0,536,67,0,0,0
11,0,0,0,0,3,547,65,0,0,0
12,0,0,0,0,0,511,65,0,0,0
13,0,0,0,0,0,547,65,0,0,0
14,0,0,0,0,0,516,66,0,0,0
15,0,0,0,0,3,544,67,0,0,0
0,0,0,0,0,0,500,67,0,0,0
1,0,0,0,0,0,531,67,0,0,0
2,0,0,0,0,0,527,66,0,0,0
3,0,0,0,0,3,514,65,0,0,0
4,0,0,0,0,0,521,65,0,0,0
5,0,0,0,0,0,512,65,0,0,0
6,0,0,0,0,0,505,65,0,0,0
7,0,0,0,0,3,526,66,0,0,0
8,0,0,0,0,0,515,66,0,0,0
9,0,0,0,0,0,513,65,0,0,0
10,0,0,0,0,0,523,66,0,0,0
11,0,0,0,0,3,510,67,0,0,0
12,0,0,0,0,1,508,66,0,0,0
13,0,0,0,0,0,508,65,0,0,0
14,0,0,0,0,0,514,64,0,0,0
15,0,0,0,0,3,499,66,0,0,0
0,0,0,0,0,0,508,66,0,0,0
1,0,0,0,0,0,504,64,0,0,0
2,0,0,0,0,0,515,67,0,0,0
3,0,0,0,0,3,487,67,0,0,0
4,0,0,0,0,0,503,66,0,0,0
5,0,0,0,0,0,494,67,0,0,0
6,0,0,0,0,0,498,66,0,0,0
7,0,0,0,0,3,507,66,0,0,0
8,0,0,0,0,0,483,66,0,0,0
9,0,0,0,0,0,479,64,0,0,0
10,0,0,0,0,0,477,66,0,0,0
11,0,0,0,0,3,509,66,0,0,0
12,0,0,0,0,0,516,64,0,0,0
13,0,0,0,0,0,507,65,0,0,0
14,0,0,0,0,0,521,65,0,0,0
15,0,0,0,0,0,505,65,0,0,0
0,0,0,0,0,0,489,64,0,0,0
1,0,0,0,0,0,511,65,0,0,0
2,0,0,0,0,0,505,64,0,0,0
3,0,0,0,0,3,527,63,0,0,0
4,0,0,0,0,0,518,63,0,0,0
5,0,0,0,0,0,454,62,0,0,0
6,0,0,0,0,0,421,63,0,0,0
7,0,0,0,0,3,523,63,0,0,0
8,0,0,0,0,0,563,63,0,0,0
9,0,0,0,0,0,535,64,0,0,0
10,0,0,0,0,0,512,63,0,0,0
11,0,0,0,0,3,531,62,0,0,0
12,0,0,0,0,0,533,62,0,0,0
13,0,0,0,0,0,540,63,0,0,0
14,0,0,0,0,0,532,63,0,0,0
15,0,0,0,0,3,527,61,0,0,0
0,0,0,0,0,1,518,63,0,0,0
1,0,0,0,0,0,536,64,0,0,0
2,0,0,0,0,0,532,63,0,0,0
3,0,0,0,0,3,519,63,0,0,0
4,0,0,0,0,0,532,63,0,0,0
5,0,0,0,0,0,521,63,0,0,0
6,0,0,0,0,0,513,64,0,0,0
7,0,0,0,0,3,515,63,0,0,0
8,0,0,0,0,0,512,63,0,0,0
9,0,0,0,0,0,504,63,0,0,0
10,0,0,0,0,0,486,63,0,0,0
11,0,0,0,0,3,515,62,0,0,0
12,0,0,0,0,0,500,63,0,0,0
13,0,0,0,0,0,484,64,0,0,0
14,0,0,0,0,0,492,64,0,0,0
15,0,0,0,0,3,501,63,0,0,0
0,0,0,0,0,0,505,63,0,0,0
1,0,0,0,0,0,512,64,0,0,0
2,0,0,0,0,0,528,64,0,0,0
3,0,0,0,0,3,520,63,0,0,0
4,0,0,0,0,0,531,64,0,0,0
5,0,0,0,0,0,539,64,0,0,0
6,0,0,0,0,0,528,64,0,0,0
7,0,0,0,0,3,531,64,0,0,0
8,0,0,0,0,0,524,62,0,0,0
9,0,0,0,0,0,516,62,0,0,0
10,0,0,0,0,0,514,63,0,0,0
11,0,0,0,0,1,508,64,0,0,0
12,0,0,0,0,0,514,63,0,0,0
13,0,0,0,0,0,509,65,0,0,0
14,0,0,0,0,0,515,65,0,0,0
15,0,0,0,0,3,513,64,0,0,0
0,0,0,0,0,0,504,63,0,0,0
1,0,0,0,0,0,500,64,0,0,0
2,0,0,0,0,0,504,65,0,0,0
3,0,0,0,0,3,507,65,0,0,0
4,0,0,0,0,0,507,65,0,0,0
5,0,0,0,0,0,505,65,0,0,0
6,0,0,0,0,0,501,64,0,0,0
7,0,0,0,0,3,504,63,0,0,0
8,0,0,0,0,0,502,63,0,0,0
9,0,0,0,0,0,501,63,0,0,0
10,0,0,0,0,0,503,65,0,0,0
11,0,0,0,0,3,504,64,0,0,0
12,0,0,0,0,0,501,65,0,0,0
13,0,0,0,0,0,496,65,0,0,0
14,0,0,0,0,0,496,64,0,0,0
15,0,0,0,0,3,496,63,0,0,0
0,0,0,0,0,1,499,63,0,0,0
1,0,0,0,0,0,502,63,0,0,0
2,0,0,0,0,0,505,64,0,0,0
3,0,0,0,0,3,510,65,0,0,0
4,0,0,0,0,0,511,65,0,0,0
5,0,0,0,0,0,510,64,0,0,0
6,0,0,0,0,0,508,65,0,0,0
7,0,0,0,0,3,510,64,0,0,0
8,0,0,0,0,0,511,63,0,0,0
9,0,0,0,0,0,512,64,0,0,0
10,0,0,0,0,0,513,65,0,0,0
11,0,0,0,0,3,512,64,0,0,0
12,0,0,0,0,0,512,62,0,0,0
13,0,0,0,0,0,512,63,0,0,0
14,0,0,0,0,0,507,64,0,0,0
15,0,0,0,0,3,510,65,0,0,0
0,0,0,0,0,0,508,65,0,0,0
1,0,0,0,0,0,509,65,0,0,0
2,0,0,0,0,0,514,63,0,0,0
3,0,0,0,0,3,525,64,0,0,0
4,0,0,0,0,0,526,64,0,0,0
5,0,0,0,0,0,522,65,0,0,0
6,0,0,0,0,0,521,64,0,0,0
7,0,0,0,0,0,525,65,0,0,0
8,0,0,0,0,0,527,63,0,0,0
9,0,0,0,0,0,528,63,0,0,0
10,0,0,0,0,0,523,65,0,0,0
11,0,0,0,0,3,485,65,0,0,0
12,0,0,0,0,0,427,64,0,0,0
13,0,0,0,0,0,475,65,0,0,0
14,0,0,0,0,0,576,65,0,0,0
15,0,0,0,0,3,535,65,0,0,0
0,0,0,0,0,0,503,63,0,0,0
1,0,0,0,0,0,525,63,0,0,0
2,0,0,0,0,0,528,62,0,0,0
3,0,0,0,0,3,525,64,0,0,0
4,0,0,0,0,0,521,65,0,0,0
5,0,0,0,0,0,519,65,0,0,0
6,0,0,0,0,0,516,63,0,0,0
7,0,0,0,0,3,516,62,0,0,0
8,0,0,0,0,0,514,64,0,0,0
9,0,0,0,0,0,511,64,0,0,0
10,0,0,0,0,0,510,63,0,0,0
11,0,0,0,0,3,502,64,0,0,0
12,0,0,0,0,0,497,62,0,0,0
13,0,0,0,0,0,498,64,0,0,0
14,0,0,0,0,0,497,65,0,0,0
15,0,0,0,0,3,496,64,0,0,0
0,0,0,0,0,1,486,63,0,0,0
1,0,0,0,0,0,482,63,0,0,0
2,0,0,0,0,0,480,63,0,0,0
3,0,0,0,0,3,477,65,0,0,0
4,0,0,0,0,0,478,65,0,0,0
5,0,0,0,0,0,483,65,0,0,0
6,0,0,0,0,0,487,65,0,0,0
7,0,0,0,0,3,500,64,0,0,0
8,0,0,0,0,0,507,64,0,0,0
9,0,0,0,0,0,511,63,0,0,0
10,0,0,0,0,0,515,65,0,0,0
11,0,0,0,0,3,521,63,0,0,0
12,0,0,0,0,0,522,63,0,0,0
13,0,0,0,0,0,520,63,0,0,0
14,0,0,0,0,0,516,65,0,0,0
15,0,0,0,0,3,511,65,0,0,0
0,0,0,0,0,0,508,64,0,0,0
1,0,0,0,0,0,509,62,0,0,0
2,0,0,0,0,1,505,64,0,0,0
3,0,0,0,0,0,503,65,0,0,0
4,0,0,0,0,0,508,64,0,0,0
5,0,0,0,0,0,513,64,0,0,0
6,0,0,0,0,0,513,65,0,0,0
7,0,0,0,0,3,515,64,0,0,0
8,0,0,0,0,0,517,62,0,0,0
9,0,0,0,0,0,517,62,0,0,0
10,0,0,0,0,0,506,62,0,0,0
11,0,0,0,0,3,498,62,0,0,0
12,0,0,0,0,0,504,64,0,0,0
13,0,0,0,0,0,507,65,0,0,0
14,0,0,0,0,0,509,64,0,0,0
15,0,0,0,0,3,510,63,0,0,0
0,0,0,0,0,0,515,63,0,0,0
1,0,0,0,0,0,510,65,0,0,0
2,0,0,0,0,0,511,64,0,0,0
3,0,0,0,0,3,510,64,0,0,0
4,0,0,0,0,0,509,63,0,0,0
5,0,0,0,0,0,508,63,0,0,0
6,0,0,0,0,0,511,63,0,0,0
7,0,0,0,0,3,515,64,0,0,0
8,0,0,0,0,0,516,64,0,0,0
9,0,0,0,0,0,517,62,0,0,0
10,0,0,0,0,0,522,63,0,0,0
11,0,0,0,0,3,522,64,0,0,0
12,0,0,0,0,0,520,64,0,0,0
13,0,0,0,0,0,519,64,0,0,0
14,0,0,0,0,0,516,63,0,0,0
15,0,0,0,0,3,503,62,0,0,0
0,0,0,0,0,1,490,63,0,0,0
1,0,0,0,0,0,480,64,0,0,0
2,0,0,0,0,0,471,64,0,0,0
3,0,0,0,0,3,472,63,0,0,0
4,0,0,0,0,0,472,62,0,0,0
5,0,0,0,0,0,472,62,0,0,0
6,0,0,0,0,0,483,63,0,0,0
7,0,0,0,0,3,489,64,0,0,0
8,0,0,0,0,0,503,64,0,0,0
9,0,0,0,0,0,514,65,0,0,0
10,0,0,0,0,0,524,64,0,0,0
11,0,0,0,0,3,529,64,0,0,0
12,0,0,0,0,0,531,64,0,0,0
13,0,0,0,0,0,534,64,0,0,0
14,0,0,0,0,0,534,65,0,0,0
15,0,0,0,0,1,531,65,0,0,0
0,0,0,0,0,0,538,65,0,0,0
1,0,0,0,0,0,519,65,0,0,0
2,0,0,0,0,0,450,63,0,0,0
3,0,0,0,0,3,463,63,0,0,0
4,0,0,0,0,0,561,62,0,0,0
5,0,0,0,0,0,574,64,0,0,0
6,0,0,0,0,0,506,65,0,0,0
7,0,0,0,0,3,528,64,0,0,0
8,0,0,0,0,0,524,64,0,0,0
9,0,0,0,0,0,518,64,0,0,0
10,0,0,0,0,0,518,64,0,0,0
11,0,0,0,0,3,518,64,0,0,0
12,0,0,0,0,0,516,63,0,0,0
13,0,0,0,0,0,516,63,0,0,0
14,0,0,0,0,0,516,63,0,0,0
15,0,0,0,0,3,513,64,0,0,0
0,0,0,0,0,0,517,64,0,0,0
1,0,0,0,0,0,516,63,0,0,0
2,0,0,0,0,0,509,63,0,0,0
3,0,0,0,0,3,504,65,0,0,0
4,0,0,0,0,0,502,65,0,0,0
5,0,0,0,0,0,500,65,0,0,0
6,0,0,0,0,0,498,65,0,0,0
7,0,0,0,0,3,492,65,0,0,0
8,0,0,0,0,0,491,65,0,0,0
9,0,0,0,0,0,495,65,0,0,0
10,0,0,0,0,0,497,64,0,0,0
11,0,0,0,0,3,504,65,0,0,0
12,0,0,0,0,0,506,65,0,0,0
13,0,0,0,0,0,512,65,0,0,0
14,0,0,0,0,0,512,66,0,0,0
15,0,0,0,0,3,518,65,0,0,0
0,0,0,0,0,0,522,65,0,0,0
1,0,0,0,0,0,525,64,0,0,0
2,0,0,0,0,0,525,64,0,0,0
3,0,0,0,0,3,525,63,0,0,0
4,0,0,0,0,0,526,63,0,0,0
5,0,0,0,0,0,522,63,0,0,0
6,0,0,0,0,0,519,65,0,0,0
7,0,0,0,0,3,518,65,0,0,0
8,0,0,0,0,0,513,65,0,0,0
9,0,0,0,0,0,508,65,0,0,0
10,0,0,0,0,0,511,65,0,0,0
11,0,0,0,0,0,513,65,0,0,0
12,0,0,0,0,0,517,65,0,0,0
13,0,0,0,0,0,518,65,0,0,0
14,0,0,0,0,0,518,65,0,0,0
15,0,0,0,0,3,523,65,0,0,0
0,0,0,0,0,0,525,63,0,0,0
1,0,0,0,0,0,522,63,0,0,0
2,0,0,0,0,0,524,63,0,0,0
3,0,0,0,0,3,525,65,0,0,0
4,0,0,0,0,0,524,64,0,0,0
5,0,0,0,0,0,519,64,0,0,0
6,0,0,0,0,0,519,65,0,0,0
7,0,0,0,0,3,522,62,0,0,0
8,0,0,0,0,0,528,62,0,0,0
9,0,0,0,0,0,533,63,0,0,0
10,0,0,0,0,0,533,64,0,0,0
11,0,0,0,0,3,531,64,0,0,0
12,0,0,0,0,0,523,65,0,0,0
13,0,0,0,0,0,522,65,0,0,0
14,0,0,0,0,0,514,64,0,0,0
15,0,0,0,0,0,511,62,0,0,0
0,0,0,0,0,0,508,62,0,0,0
1,0,0,0,0,0,509,63,0,0,0
2,0,0,0,0,0,507,64,0,0,0
3,0,0,0,0,3,506,64,0,0,0
4,0,0,0,0,0,501,63,0,0,0
5,0,0,0,0,0,504,64,0,0,0
6,0,0,0,0,0,504,62,0,0,0
7,0,0,0,0,3,507,62,0,0,0
8,0,0,0,0,0,500,63,0,0,0
9,0,0,0,0,0,494,62,0,0,0
10,0,0,0,0,0,493,63,0,0,0
11,0,0,0,0,3,491,62,0,0,0
12,0,0,0,0,0,491,63,0,0,0
13,0,0,0,0,0,496,62,0,0,0
14,0,0,0,0,0,497,62,0,0,0
15,0,0,0,0,3,507,64,0,0,0
0,0,0,0,0,0,517,64,0,0,0
1,0,0,0,0,0,523,65,0,0,0
2,0,0,0,0,0,520,65,0,0,0
3,0,0,0,0,3,519,65,0,0,0
4,0,0,0,0,0,516,62,0,0,0
5,0,0,0,0,0,515,65,0,0,0
6,0,0,0,0,0,515,63,0,0,0
7,0,0,0,0,3,514,63,0,0,0
8,0,0,0,0,0,481,62,0,0,0
9,0,0,0,0,0,433,62,0,0,0
10,0,0,0,0,0,475,62,0,0,0
11,0,0,0,0,3,566,63,0,0,0
12,0,0,0,0,0,546,63,0,0,0
13,0,0,0,0,0,507,64,0,0,0
14,0,0,0,0,0,519,65,0,0,0
15,0,0,0,0,3,520,63,0,0,0
0,0,0,0,0,0,509,64,0,0,0
1,0,0,0,0,0,508,65,0,0,0
2,0,0,0,0,0,508,63,0,0,0
3,0,0,0,0,3,507,64,0,0,0
4,0,0,0,0,0,508,63,0,0,0
5,0,0,0,0,0,514,62,0,0,0
6,0,0,0,0,0,516,65,0,0,0
7,0,0,0,0,3,517,64,0,0,0
8,0,0,0,0,0,516,62,0,0,0
9,0,0,0,0,0,509,64,0,0,0
10,0,0,0,0,0,505,65,0,0,0
11,0,0,0,0,1,506,65,0,0,0
12,0,0,0,0,0,501,63,0,0,0
13,0,0,0,0,0,494,64,0,0,0
14,0,0,0,0,0,487,64,0,0,0
15,0,0,0,0,3,482,64,0,0,0
0,0,0,0,0,0,481,63,0,0,0
1,0,0,0,0,0,484,63,0,0,0
2,0,0,0,0,0,491,63,0,0,0
3,0,0,0,0,3,500,63,0,0,0
4,0,0,0,0,0,511,62,0,0,0
5,0,0,0,0,0,519,64,0,0,0
6,0,0,0,0,0,521,65,0,0,0
7,0,0,0,0,3,525,65,0,0,0
8,0,0,0,0,0,527,65,0,0,0
9,0,0,0,0,0,527,65,0,0,0
10,0,0,0,0,0,529,64,0,0,0
11,0,0,0,0,3,519,63,0,0,0
12,0,0,0,0,0,504,64,0,0,0
13,0,0,0,0,0,504,63,0,0,0
14,0,0,0,0,0,510,65,0,0,0
15,0,0,0,0,3,515,64,0,0,0
0,0,0,0,0,0,516,62,0,0,0
1,0,0,0,0,0,514,65,0,0,0
2,0,0,0,0,0,513,65,0,0,0
3,0,0,0,0,3,514,63,0,0,0
4,0,0,0,0,0,506,63,0,0,0
5,0,0,0,0,0,504,65,0,0,0
6,0,0,0,0,0,503,63,0,0,0
7,0,0,0,0,3,499,64,0,0,0
8,0,0,0,0,0,502,65,0,0,0
9,0,0,0,0,0,508,64,0,0,0
10,0,0,0,0,0,508,63,0,0,0
11,0,0,0,0,3,506,64,0,0,0
12,0,0,0,0,0,508,65,0,0,0
13,0,0,0,0,0,508,65,0,0,0
14,0,0,0,0,0,511,64,0,0,0
15,0,0,0,0,3,511,64,0,0,0
0,0,0,0,0,0,506,65,0,0,0
1,0,0,0,0,0,507,63,0,0,0
2,0,0,0,0,0,509,65,0,0,0
3,0,0,0,0,3,514,65,0,0,0
4,0,0,0,0,0,507,63,0,0,0
5,0,0,0,0,0,500,65,0,0,0
6,0,0,0,0,0,503,65,0,0,0
7,0,0,0,0,0,509,63,0,0,0
8,0,0,0,0,0,511,65,0,0,0
9,0,0,0,0,0,504,63,0,0,0
10,0,0,0,0,0,504,65,0,0,0
11,0,0,0,0,3,508,65,0,0,0
12,0,0,0,0,0,505,63,0,0,0
13,0,0,0,0,0,505,63,0,0,0
14,0,0,0,0,0,503,65,0,0,0
15,0,0,0,0,3,494,63,0,0,0
0,0,0,0,0,0,498,65,0,0,0
1,0,0,0,0,0,513,63,0,0,0
2,0,0,0,0,0,497,64,0,0,0
3,0,0,0,0,3,503,65,0,0,0
4,0,0,0,0,0,511,63,0,0,0
5,0,0,0,0,0,510,65,0,0,0
6,0,0,0,0,0,506,63,0,0,0
7,0,0,0,0,3,510,65,0,0,0
8,0,0,0,0,0,510,63,0,0,0
9,0,0,0,0,0,513,65,0,0,0
10,0,0,0,0,0,523,65,0,0,0
11,0,0,0,0,3,512,63,0,0,0
12,0,0,0,0,0,449,65,0,0,0
13,0,0,0,0,0,438,63,0,0,0
14,0,0,0,0,0,507,63,0,0,0
15,0,0,0,0,3,572,65,0,0,0
0,0,0,0,0,0,503,63,0,0,0
1,0,0,0,0,0,508,62,0,0,0
2,0,0,0,0,0,516,63,0,0,0
3,0,0,0,0,3,511,65,0,0,0
4,0,0,0,0,0,514,62,0,0,0
5,0,0,0,0,0,512,62,0,0,0
6,0,0,0,0,0,510,64,0,0,0
7,0,0,0,0,3,508,64,0,0,0
8,0,0,0,0,0,506,62,0,0,0
9,0,0,0,0,0,506,62,0,0,0
10,0,0,0,0,0,509,62,0,0,0
11,0,0,0,0,3,510,64,0,0,0
12,0,0,0,0,0,507,63,0,0,0
13,0,0,0,0,0,501,64,0,0,0
14,0,0,0,0,0,499,65,0,0,0
15,0,0,0,0,3,491,63,0,0,0
0,0,0,0,0,0,486,62,0,0,0
1,0,0,0,0,0,483,62,0,0,0
2,0,0,0,0,0,480,64,0,0,0
3,0,0,0,0,0,480,64,0,0,0
4,0,0,0,0,0,481,63,0,0,0
5,0,0,0,0,0,482,62,0,0,0
6,0,0,0,0,0,486,64,0,0,0
7,0,0,0,0,3,497,62,0,0,0
8,0,0,0,0,0,507,63,0,0,0
9,0,0,0,0,0,516,63,0,0,0
10,0,0,0,0,0,519,63,0,0,0
11,0,0,0,0,3,524,63,0,0,0
12,0,0,0,0,0,527,63,0,0,0
13,0,0,0,0,0,526,62,0,0,0
14,0,0,0,0,0,525,63,0,0,0
15,0,0,0,0,3,522,63,0,0,0
0,0,0,0,0,0,523,63,0,0,0
1,0,0,0,0,0,520,61,0,0,0
2,0,0,0,0,0,518,63,0,0,0
3,0,0,0,0,3,515,62,0,0,0
4,0,0,0,0,0,513,63,0,0,0
5,0,0,0,0,0,510,63,0,0,0
6,0,0,0,0,0,507,63,0,0,0
7,0,0,0,0,3,508,63,0,0,0
8,0,0,0,0,0,508,63,0,0,0
9,0,0,0,0,0,513,63,0,0,0
10,0,0,0,0,0,515,63,0,0,0
11,0,0,0,0,3,512,63,0,0,0
12,0,0,0,0,0,514,63,0,0,0
13,0,0,0,0,0,517,62,0,0,0
14,0,0,0,0,0,513,61,0,0,0
15,0,0,0,0,3,509,61,0,0,0
0,0,0,0,0,0,508,62,0,0,0
1,0,0,0,0,0,510,61,0,0,0
2,0,0,0,0,0,511,62,0,0,0
3,0,0,0,0,3,509,62,0,0,0
4,0,0,0,0,0,509,62,0,0,0
5,0,0,0,0,0,509,64,0,0,0
6,0,0,0,0,0,508,64,0,0,0
7,0,0,0,0,3,506,64,0,0,0
8,0,0,0,0,0,508,63,0,0,0
9,0,0,0,0,0,510,63,0,0,0
10,0,0,0,0,0,511,63,0,0,0
11,0,0,0,0,3,512,63,0,0,0
12,0,0,0,0,0,513,63,0,0,0
13,0,0,0,0,0,514,65,0,0,0
14,0,0,0,0,0,517,65,0,0,0
15,0,0,0,0,0,517,65,0,0,0
0,0,0,0,0,0,515,63,0,0,0
1,0,0,0,0,0,512,64,0,0,0
2,0,0,0,0,0,508,66,0,0,0
3,0,0,0,0,3,503,67,0,0,0
4,0,0,0,0,0,505,64,0,0,0
5,0,0,0,0,0,501,65,0,0,0
6,0,0,0,0,0,503,66,0,0,0
7,0,0,0,0,3,505,67,0,0,0
8,0,0,0,0,0,507,66,0,0,0
9,0,0,0,0,0,517,64,0,0,0
10,0,0,0,0,0,527,67,0,0,0
11,0,0,0,0,3,531,67,0,0,0
12,0,0,0,0,0,533,67,0,0,0
13,0,0,0,0,0,529,65,0,0,0
14,0,0,0,0,0,525,65,0,0,0
15,0,0,0,0,3,523,67,0,0,0
0,0,0,0,0,0,527,67,0,0,0
1,0,0,0,0,0,523,68,0,0,0
2,0,0,0,0,0,483,67,0,0,0
3,0,0,0,0,3,435,66,0,0,0
4,0,0,0,0,0,482,65,0,0,0
5,0,0,0,0,0,576,66,0,0,0
6,0,0,0,0,0,531,67,0,0,0
7,0,0,0,0,3,505,67,0,0,0
8,0,0,0,0,0,523,68,0,0,0
9,0,0,0,0,0,526,69,0,0,0
10,0,0,0,0,0,530,68,0,0,0
11,0,0,0,0,3,528,66,0,0,0
12,0,0,0,0,0,527,66,0,0,0
13,0,0,0,0,0,525,66,0,0,0
14,0,0,0,0,0,528,67,0,0,0
15,0,0,0,0,3,527,67,0,0,0
0,0,0,0,0,0,525,69,0,0,0
1,0,0,0,0,0,523,69,0,0,0
2,0,0,0,0,0,520,67,0,0,0
3,0,0,0,0,3,515,68,0,0,0
4,0,0,0,0,0,507,68,0,0,0
5,0,0,0,0,0,505,69,0,0,0
6,0,0,0,0,0,503,70,0,0,0
7,0,0,0,0,3,500,70,0,0,0
8,0,0,0,0,0,501,68,0,0,0
9,0,0,0,0,0,503,67,0,0,0
10,0,0,0,0,0,499,69,0,0,0
11,0,0,0,0,1,499,70,0,0,0
12,0,0,0,0,0,504,70,0,0,0
13,0,0,0,0,0,511,70,0,0,0
14,0,0,0,0,0,513,70,0,0,0
15,0,0,0,0,3,524,70,0,0,0
0,0,0,0,0,0,532,69,0,0,0
1,0,0,0,0,0,537,69,0,0,0
2,0,0,0,0,0,532,68,0,0,0
3,0,0,0,0,3,530,68,0,0,0
4,0,0,0,0,0,529,68,0,0,0
5,0,0,0,0,0,529,70,0,0,0
6,0,0,0,0,0,527,69,0,0,0
7,0,0,0,0,3,526,69,0,0,0
8,0,0,0,0,0,526,70,0,0,0
9,0,0,0,0,0,524,71,0,0,0
10,0,0,0,0,0,524,71,0,0,0
11,0,0,0,0,3,519,72,0,0,0
12,0,0,0,0,0,512,71,0,0,0
13,0,0,0,0,0,507,71,0,0,0
14,0,0,0,0,0,506,72,0,0,0
15,0,0,0,0,3,505,70,0,0,0
0,0,0,0,0,0,508,71,0,0,0
1,0,0,0,0,0,507,72,0,0,0
2,0,0,0,0,0,506,72,0,0,0
3,0,0,0,0,3,503,71,0,0,0
4,0,0,0,0,0,502,70,0,0,0
5,0,0,0,0,0,502,72,0,0,0
6,0,0,0,0,0,504,72,0,0,0
7,0,0,0,0,3,500,72,0,0,0
8,0,0,0,0,0,504,72,0,0,0
9,0,0,0,0,0,503,72,0,0,0
10,0,0,0,0,0,506,72,0,0,0
11,0,0,0,0,3,508,70,0,0,0
12,0,0,0,0,0,512,71,0,0,0
13,0,0,0,0,0,512,70,0,0,0
14,0,0,0,0,0,515,72,0,0,0
15,0,0,0,0,3,515,71,0,0,0
0,0,0,0,0,0,515,71,0,0,0
1,0,0,0,0,0,515,70,0,0,0
2,0,0,0,0,0,518,71,0,0,0
3,0,0,0,0,3,518,70,0,0,0
4,0,0,0,0,0,518,70,0,0,0
5,0,0,0,0,0,519,72,0,0,0
6,0,0,0,0,0,524,72,0,0,0
7,0,0,0,0,0,523,73,0,0,0
8,0,0,0,0,0,523,71,0,0,0
9,0,0,0,0,0,517,71,0,0,0
10,0,0,0,0,0,512,71,0,0,0
11,0,0,0,0,3,512,72,0,0,0
12,0,0,0,0,0,510,73,0,0,0
13,0,0,0,0,0,507,70,0,0,0
14,0,0,0,0,0,510,72,0,0,0
15,0,0,0,0,3,513,73,0,0,0
0,0,0,0,0,0,523,72,0,0,0
1,0,0,0,0,0,531,71,0,0,0
2,0,0,0,0,0,536,71,0,0,0
3,0,0,0,0,3,532,70,0,0,0
4,0,0,0,0,0,529,70,0,0,0
5,0,0,0,0,0,527,71,0,0,0
6,0,0,0,0,0,524,73,0,0,0
7,0,0,0,0,3,519,73,0,0,0
8,0,0,0,0,0,520,73,0,0,0
9,0,0,0,0,0,487,72,0,0,0
10,0,0,0,0,0,425,71,0,0,0
11,0,0,0,0,0,463,72,0,0,0
12,0,0,0,0,0,565,71,0,0,0
13,0,0,0,0,0,527,71,0,0,0
14,0,0,0,0,0,487,71,0,0,0
15,0,0,0,0,3,508,73,0,0,0
0,0,0,0,0,0,508,73,0,0,0
1,0,0,0,0,0,503,73,0,0,0
2,0,0,0,0,0,502,71,0,0,0
3,0,0,0,0,3,499,71,0,0,0
4,0,0,0,0,0,502,71,0,0,0
5,0,0,0,0,0,503,71,0,0,0
6,0,0,0,0,0,501,71,0,0,0
7,0,0,0,0,3,501,71,0,0,0
8,0,0,0,0,0,503,71,0,0,0
9,0,0,0,0,0,503,70,0,0,0
10,0,0,0,0,0,497,71,0,0,0
11,0,0,0,0,3,490,71,0,0,0
12,0,0,0,0,0,485,71,0,0,0
13,0,0,0,0,0,489,71,0,0,0
14,0,0,0,0,0,490,71,0,0,0
15,0,0,0,0,3,488,72,0,0,0
0,0,0,0,0,0,486,73,0,0,0
1,0,0,0,0,0,483,72,0,0,0
2,0,0,0,0,0,487,73,0,0,0
3,0,0,0,0,3,491,72,0,0,0
4,0,0,0,0,0,496,70,0,0,0
5,0,0,0,0,0,507,71,0,0,0
6,0,0,0,0,0,516,71,0,0,0
7,0,0,0,0,3,521,73,0,0,0
8,0,0,0,0,0,527,73,0,0,0
9,0,0,0,0,0,528,73,0,0,0
10,0,0,0,0,0,528,73,0,0,0
11,0,0,0,0,3,522,73,0,0,0
12,0,0,0,0,0,518,73,0,0,0
13,0,0,0,0,0,515,73,0,0,0
14,0,0,0,0,0,513,72,0,0,0
15,0,0,0,0,3,507,71,0,0,0
0,0,0,0,0,0,506,71,0,0,0
1,0,0,0,0,0,502,71,0,0,0
2,0,0,0,0,0,504,72,0,0,0
3,0,0,0,0,3,504,71,0,0,0
4,0,0,0,0,0,502,71,0,0,0
5,0,0,0,0,0,505,71,0,0,0
6,0,0,0,0,0,507,71,0,0,0
7,0,0,0,0,1,502,71,0,0,0
8,0,0,0,0,0,506,71,0,0,0
9,0,0,0,0,0,510,71,0,0,0
10,0,0,0,0,0,511,72,0,0,0
11,0,0,0,0,3,514,71,0,0,0
12,0,0,0,0,0,518,71,0,0,0
13,0,0,0,0,0,518,71,0,0,0
14,0,0,0,0,0,520,72,0,0,0
15,0,0,0,0,3,515,73,0,0,0
0,0,0,0,0,0,515,73,0,0,0
1,0,0,0,0,0,514,73,0,0,0
2,0,0,0,0,0,510,72,0,0,0
3,0,0,0,0,3,507,71,0,0,0
4,0,0,0,0,0,503,72,0,0,0
5,0,0,0,0,0,499,72,0,0,0
6,0,0,0,0,0,506,71,0,0,0
7,0,0,0,0,3,513,73,0,0,0
8,0,0,0,0,0,516,73,0,0,0
9,0,0,0,0,0,511,73,0,0,0
10,0,0,0,0,0,505,71,0,0,0
11,0,0,0,0,3,503,71,0,0,0
12,0,0,0,0,0,503,71,0,0,0
13,0,0,0,0,0,504,73,0,0,0
14,0,0,0,0,0,507,71,0,0,0
15,0,0,0,0,3,505,71,0,0,0
0,0,0,0,0,0,500,73,0,0,0
1,0,0,0,0,0,500,73,0,0,0
2,0,0,0,0,0,497,73,0,0,0
3,0,0,0,0,3,490,73,0,0,0
4,0,0,0,0,0,500,74,0,0,0
5,0,0,0,0,0,503,74,0,0,0
6,0,0,0,0,0,511,73,0,0,0
7,0,0,0,0,3,521,74,0,0,0
8,0,0,0,0,0,526,72,0,0,0
9,0,0,0,0,0,528,71,0,0,0
10,0,0,0,0,0,525,72,0,0,0
11,0,0,0,0,3,524,71,0,0,0
12,0,0,0,0,0,523,73,0,0,0
13,0,0,0,0,0,523,74,0,0,0
14,0,0,0,0,0,531,74,0,0,0
15,0,0,0,0,3,523,74,0,0,0
0,0,0,0,0,0,457,71,0,0,0
1,0,0,0,0,0,438,73,0,0,0
2,0,0,0,0,0,511,74,0,0,0
3,0,0,0,0,1,587,74,0,0,0
4,0,0,0,0,0,512,74,0,0,0
5,0,0,0,0,0,504,74,0,0,0
6,0,0,0,0,0,515,71,0,0,0
7,0,0,0,0,3,518,71,0,0,0
8,0,0,0,0,0,519,72,0,0,0
9,0,0,0,0,0,514,72,0,0,0
10,0,0,0,0,0,518,73,0,0,0
11,0,0,0,0,3,516,74,0,0,0
12,0,0,0,0,0,522,74,0,0,0
13,0,0,0,0,0,525,73,0,0,0
14,0,0,0,0,0,530,71,0,0,0
15,0,0,0,0,3,529,74,0,0,0
0,0,0,0,0,0,525,74,0,0,0
1,0,0,0,0,0,526,73,0,0,0
2,0,0,0,0,0,525,74,0,0,0
3,0,0,0,0,3,521,74,0,0,0
4,0,0,0,0,0,524,73,0,0,0
5,0,0,0,0,0,523,74,0,0,0
6,0,0,0,0,0,520,74,0,0,0
7,0,0,0,0,3,508,73,0,0,0
8,0,0,0,0,0,495,73,0,0,0
9,0,0,0,0,0,494,73,0,0,0
10,0,0,0,0,0,496,72,0,0,0
11,0,0,0,0,3,502,72,0,0,0
12,0,0,0,0,0,509,71,0,0,0
13,0,0,0,0,0,513,70,0,0,0
14,0,0,0,0,0,509,71,0,0,0
15,0,0,0,0,3,499,71,0,0,0
0,0,0,0,0,0,495,71,0,0,0
1,0,0,0,0,0,495,72,0,0,0
2,0,0,0,0,0,494,72,0,0,0
3,0,0,0,0,3,493,71,0,0,0
4,0,0,0,0,0,494,71,0,0,0
5,0,0,0,0,0,496,71,0,0,0
6,0,0,0,0,0,501,71,0,0,0
7,0,0,0,0,3,499,72,0,0,0
8,0,0,0,0,0,504,72,0,0,0
9,0,0,0,0,0,505,71,0,0,0
10,0,0,0,0,0,502,70,0,0,0
11,0,0,0,0,3,502,70,0,0,0
12,0,0,0,0,0,505,70,0,0,0
13,0,0,0,0,0,506,71,0,0,0
14,0,0,0,0,0,511,72,0,0,0
15,0,0,0,0,0,513,71,0,0,0
0,0,0,0,0,0,514,71,0,0,0
1,0,0,0,0,0,515,71,0,0,0
2,0,0,0,0,0,519,71,0,0,0
3,0,0,0,0,3,524,71,0,0,0
4,0,0,0,0,0,524,71,0,0,0
5,0,0,0,0,0,525,71,0,0,0
6,0,0,0,0,0,527,72,0,0,0
7,0,0,0,0,3,528,71,0,0,0
8,0,0,0,0,0,530,71,0,0,0
9,0,0,0,0,0,531,71,0,0,0
10,0,0,0,0,0,527,71,0,0,0
11,0,0,0,0,3,528,70,0,0,0
12,0,0,0,0,0,529,71,0,0,0
13,0,0,0,0,0,531,71,0,0,0
14,0,0,0,0,0,530,71,0,0,0
15,0,0,0,0,3,534,71,0,0,0
0,0,0,0,0,0,531,70,0,0,0
1,0,0,0,0,0,527,69,0,0,0
2,0,0,0,0,0,524,70,0,0,0
3,0,0,0,0,3,515,69,0,0,0
4,0,0,0,0,0,515,71,0,0,0
5,0,0,0,0,0,507,71,0,0,0
6,0,0,0,0,0,496,72,0,0,0
7,0,0,0,0,3,499,71,0,0,0
8,0,0,0,0,0,497,69,0,0,0
9,0,0,0,0,0,502,71,0,0,0
10,0,0,0,0,0,516,71,0,0,0
11,0,0,0,0,3,514,71,0,0,0
12,0,0,0,0,0,515,71,0,0,0
13,0,0,0,0,0,514,69,0,0,0
14,0,0,0,0,0,514,70,0,0,0
15,0,0,0,0,3,508,70,0,0,0
0,0,0,0,0,0,505,71,0,0,0
1,0,0,0,0,0,505,71,0,0,0
2,0,0,0,0,0,498,71,0,0,0
3,0,0,0,0,3,447,71,0,0,0
4,0,0,0,0,0,448,71,0,0,0
5,0,0,0,0,0,503,69,0,0,0
6,0,0,0,0,0,552,69,0,0,0
7,0,0,0,0,3,493,69,0,0,0
8,0,0,0,0,0,500,71,0,0,0
9,0,0,0,0,0,517,70,0,0,0
10,0,0,0,0,0,520,70,0,0,0
11,0,0,0,0,0,514,71,0,0,0
12,0,0,0,0,0,510,71,0,0,0
13,0,0,0,0,0,507,71,0,0,0
14,0,0,0,0,0,506,71,0,0,0
15,0,0,0,0,3,507,71,0,0,0
0,0,0,0,0,0,507,69,0,0,0
1,0,0,0,0,0,508,71,0,0,0
2,0,0,0,0,0,509,71,0,0,0
3,0,0,0,0,3,505,71,0,0,0
4,0,0,0,0,0,505,71,0,0,0
5,0,0,0,0,0,500,71,0,0,0
6,0,0,0,0,0,497,70,0,0,0
7,0,0,0,0,3,495,70,0,0,0
8,0,0,0,0,0,495,71,0,0,0
9,0,0,0,0,0,497,70,0,0,0
10,0,0,0,0,0,503,69,0,0,0
11,0,0,0,0,3,506,71,0,0,0
12,0,0,0,0,0,511,71,0,0,0
13,0,0,0,0,0,515,70,0,0,0
14,0,0,0,0,0,527,70,0,0,0
15,0,0,0,0,3,532,70,0,0,0
0,0,0,0,0,0,541,70,0,0,0
1,0,0,0,0,0,538,71,0,0,0
2,0,0,0,0,0,540,71,0,0,0
3,0,0,0,0,3,539,69,0,0,0
4,0,0,0,0,0,540,71,0,0,0
5,0,0,0,0,0,539,69,0,0,0
6,0,0,0,0,0,530,71,0,0,0
7,0,0,0,0,3,525,71,0,0,0
8,0,0,0,0,0,524,69,0,0,0
9,0,0,0,0,0,517,71,0,0,0
10,0,0,0,0,0,521,71,0,0,0
11,0,0,0,0,3,520,71,0,0,0
12,0,0,0,0,0,524,71,0,0,0
13,0,0,0,0,0,519,69,0,0,0
14,0,0,0,0,0,514,70,0,0,0
15,0,0,0,0,3,510,71,0,0,0
0,0,0,0,0,0,512,71,0,0,0
1,0,0,0,0,0,508,71,0,0,0
2,0,0,0,0,0,509,71,0,0,0
3,0,0,0,0,3,508,70,0,0,0
4,0,0,0,0,0,505,69,0,0,0
5,0,0,0,0,0,503,69,0,0,0
6,0,0,0,0,0,505,70,0,0,0
7,0,0,0,0,0,504,71,0,0,0
8,0,0,0,0,0,502,71,0,0,0
9,0,0,0,0,0,503,71,0,0,0
10,0,0,0,0,0,504,71,0,0,0
11,0,0,0,0,3,506,71,0,0,0
12,0,0,0,0,0,509,71,0,0,0
13,0,0,0,0,0,507,71,0,0,0
14,0,0,0,0,0,508,71,0,0,0
15,0,0,0,0,3,510,71,0,0,0
0,0,0,0,0,0,511,71,0,0,0
1,0,0,0,0,0,508,71,0,0,0
2,0,0,0,0,0,511,71,0,0,0
3,0,0,0,0,3,510,69,0,0,0
4,0,0,0,0,0,507,71,0,0,0
5,0,0,0,0,0,505,71,0,0,0
6,0,0,0,0,0,509,71,0,0,0
7,0,0,0,0,3,508,69,0,0,0
8,0,0,0,0,0,509,69,0,0,0
9,0,0,0,0,0,508,71,0,0,0
10,0,0,0,0,0,503,71,0,0,0
11,0,0,0,0,3,501,70,0,0,0
12,0,0,0,0,0,499,69,0,0,0
13,0,0,0,0,0,496,71,0,0,0
14,0,0,0,0,0,500,71,0,0,0
15,0,0,0,0,3,501,69,0,0,0
0,0,0,0,0,0,509,71,0,0,0
1,0,0,0,0,0,518,71,0,0,0
2,0,0,0,0,0,519,70,0,0,0
3,0,0,0,0,3,519,68,0,0,0
4,0,0,0,0,0,518,71,0,0,0
5,0,0,0,0,0,519,71,0,0,0
6,0,0,0,0,0,522,71,0,0,0
7,0,0,0,0,3,522,71,0,0,0
8,0,0,0,0,0,524,71,0,0,0
9,0,0,0,0,0,497,70,0,0,0
10,0,0,0,0,0,442,71,0,0,0
11,0,0,0,0,3,459,71,0,0,0
12,0,0,0,0,0,530,71,0,0,0
13,0,0,0,0,0,552,69,0,0,0
14,0,0,0,0,0,497,71,0,0,0
15,0,0,0,0,3,517,70,0,0,0
0,0,0,0,0,0,524,69,0,0,0
1,0,0,0,0,0,522,69,0,0,0
2,0,0,0,0,0,523,70,0,0,0
3,0,0,0,0,0,519,70,0,0,0
4,0,0,0,0,0,519,71,0,0,0
5,0,0,0,0,0,513,71,0,0,0
6,0,0,0,0,0,512,70,0,0,0
7,0,0,0,0,3,504,70,0,0,0
8,0,0,0,0,0,505,69,0,0,0
9,0,0,0,0,0,505,70,0,0,0
10,0,0,0,0,0,504,68,0,0,0
11,0,0,0,0,3,498,70,0,0,0
12,0,0,0,0,0,496,71,0,0,0
13,0,0,0,0,0,489,69,0,0,0
14,0,0,0,0,0,488,69,0,0,0
15,0,0,0,0,3,487,68,0,0,0
0,0,0,0,0,0,486,69,0,0,0
1,0,0,0,0,0,487,70,0,0,0
2,0,0,0,0,0,488,71,0,0,0
3,0,0,0,0,3,493,71,0,0,0
4,0,0,0,0,0,497,70,0,0,0
5,0,0,0,0,0,505,69,0,0,0
6,0,0,0,0,0,514,69,0,0,0
7,0,0,0,0,0,520,70,0,0,0
8,0,0,0,0,0,524,70,0,0,0
9,0,0,0,0,0,525,70,0,0,0
10,0,0,0,0,0,525,71,0,0,0
11,0,0,0,0,3,521,70,0,0,0
12,0,0,0,0,0,523,70,0,0,0
13,0,0,0,0,0,518,70,0,0,0
14,0,0,0,0,0,514,70,0,0,0
15,0,0,0,0,3,513,70,0,0,0
0,0,0,0,0,0,512,69,0,0,0
1,0,0,0,0,0,507,68,0,0,0
2,0,0,0,0,0,505,69,0,0,0
3,0,0,0,0,3,504,69,0,0,0
4,0,0,0,0,0,503,70,0,0,0
5,0,0,0,0,0,504,71,0,0,0
6,0,0,0,0,0,507,70,0,0,0
7,0,0,0,0,3,505,71,0,0,0
8,0,0,0,0,0,505,70,0,0,0
9,0,0,0,0,0,505,71,0,0,0
10,0,0,0,0,0,504,71,0,0,0
11,0,0,0,0,3,502,71,0,0,0
12,0,0,0,0,0,502,70,0,0,0
13,0,0,0,0,0,499,69,0,0,0
14,0,0,0,0,0,499,71,0,0,0
15,0,0,0,0,3,498,71,0,0,0
0,0,0,0,0,0,501,71,0,0,0
1,0,0,0,0,0,499,69,0,0,0
2,0,0,0,0,0,498,69,0,0,0
3,0,0,0,0,3,492,70,0,0,0
4,0,0,0,0,0,493,69,0,0,0
5,0,0,0,0,0,492,71,0,0,0
6,0,0,0,0,0,491,71,0,0,0
7,0,0,0,0,3,494,71,0,0,0
8,0,0,0,0,0,496,70,0,0,0
9,0,0,0,0,0,495,69,0,0,0
10,0,0,0,0,0,498,71,0,0,0
11,0,0,0,0,3,499,71,0,0,0
12,0,0,0,0,0,503,71,0,0,0
13,0,0,0,0,0,506,69,0,0,0
14,0,0,0,0,0,509,71,0,0,0
15,0,0,0,0,3,510,70,0,0,0
0,0,0,0,0,0,508,69,0,0,0
1,0,0,0,0,0,502,69,0,0,0
2,0,0,0,0,0,503,71,0,0,0
3,0,0,0,0,0,502,71,0,0,0
4,0,0,0,0,0,494,70,0,0,0
5,0,0,0,0,0,491,70,0,0,0
6,0,0,0,0,0,489,69,0,0,0
7,0,0,0,0,3,477,71,0,0,0
8,0,0,0,0,0,479,71,0,0,0
9,0,0,0,0,0,485,71,0,0,0
10,0,0,0,0,0,485,70,0,0,0
11,0,0,0,0,3,494,69,0,0,0
12,0,0,0,0,0,505,70,0,0,0
13,0,0,0,0,0,505,71,0,0,0
14,0,0,0,0,0,500,69,0,0,0
15,0,0,0,0,3,500,69,0,0,0
0,0,0,0,0,0,502,71,0,0,0
1,0,0,0,0,0,501,71,0,0,0
2,0,0,0,0,0,504,71,0,0,0
3,0,0,0,0,3,509,69,0,0,0
4,0,0,0,0,0,491,70,0,0,0
5,0,0,0,0,0,432,70,0,0,0
6,0,0,0,0,0,451,71,0,0,0
7,0,0,0,0,3,527,71,0,0,0
8,0,0,0,0,0,543,71,0,0,0
9,0,0,0,0,0,487,71,0,0,0
10,0,0,0,0,0,503,71,0,0,0
11,0,0,0,0,3,510,71,0,0,0
12,0,0,0,0,0,511,71,0,0,0
13,0,0,0,0,0,515,69,0,0,0
14,0,0,0,0,0,515,70,0,0,0
15,0,0,0,0,3,517,69,0,0,0
0,0,0,0,0,0,515,70,0,0,0
1,0,0,0,0,0,513,70,0,0,0
2,0,0,0,0,0,513,71,0,0,0
3,0,0,0,0,3,513,70,0,0,0
4,0,0,0,0,0,515,69,0,0,0
5,0,0,0,0,0,511,69,0,0,0
6,0,0,0,0,0,507,71,0,0,0
7,0,0,0,0,3,500,71,0,0,0
8,0,0,0,0,0,499,69,0,0,0
9,0,0,0,0,0,496,72,0,0,0
10,0,0,0,0,0,494,72,0,0,0
11,0,0,0,0,3,493,72,0,0,0
12,0,0,0,0,0,495,71,0,0,0
13,0,0,0,0,0,492,72,0,0,0
14,0,0,0,0,0,489,71,0,0,0
15,0,0,0,0,1,493,71,0,0,0
0,0,0,0,0,0,503,71,0,0,0
1,0,0,0,0,0,515,70,0,0,0
2,0,0,0,0,0,526,71,0,0,0
3,0,0,0,0,3,525,71,0,0,0
4,0,0,0,0,0,527,70,0,0,0
5,0,0,0,0,0,527,70,0,0,0
6,0,0,0,0,0,529,70,0,0,0
7,0,0,0,0,3,529,71,0,0,0
8,0,0,0,0,0,532,71,0,0,0
9,0,0,0,0,0,528,72,0,0,0
10,0,0,0,0,0,528,73,0,0,0
11,0,0,0,0,3,525,73,0,0,0
12,0,0,0,0,0,524,73,0,0,0
13,0,0,0,0,0,524,73,0,0,0
14,0,0,0,0,0,525,72,0,0,0
15,0,0,0,0,3,527,73,0,0,0
0,0,0,0,0,0,528,73,0,0,0
1,0,0,0,0,0,528,73,0,0,0
2,0,0,0,0,0,526,73,0,0,0
3,0,0,0,0,3,517,73,0,0,0
4,0,0,0,0,0,518,72,0,0,0
5,0,0,0,0,0,517,71,0,0,0
6,0,0,0,0,0,518,73,0,0,0
7,0,0,0,0,3,516,71,0,0,0
8,0,0,0,0,0,515,71,0,0,0
9,0,0,0,0,0,515,71,0,0,0
10,0,0,0,0,0,519,73,0,0,0
11,0,0,0,0,3,519,73,0,0,0
12,0,0,0,0,0,519,72,0,0,0
13,0,0,0,0,0,516,72,0,0,0
14,0,0,0,0,0,517,71,0,0,0
15,0,0,0,0,3,513,73,0,0,0
0,0,0,0,0,0,515,72,0,0,0
1,0,0,0,0,0,513,73,0,0,0
2,0,0,0,0,0,515,74,0,0,0
3,0,0,0,0,3,514,73,0,0,0
4,0,0,0,0,0,515,73,0,0,0
5,0,0,0,0,0,513,73,0,0,0
6,0,0,0,0,0,514,72,0,0,0
7,0,0,0,0,3,512,71,0,0,0
8,0,0,0,0,0,514,71,0,0,0
9,0,0,0,0,0,514,71,0,0,0
10,0,0,0,0,0,513,73,0,0,0
11,0,0,0,0,0,510,73,0,0,0
12,0,0,0,0,0,507,71,0,0,0
13,0,0,0,0,0,505,73,0,0,0
14,0,0,0,0,0,505,74,0,0,0
15,0,0,0,0,3,505,73,0,0,0
0,0,0,0,0,0,511,71,0,0,0
1,0,0,0,0,0,508,71,0,0,0
2,0,0,0,0,0,511,74,0,0,0
3,0,0,0,0,3,507,73,0,0,0
4,0,0,0,0,0,504,73,0,0,0
5,0,0,0,0,0,504,73,0,0,0
6,0,0,0,0,0,506,72,0,0,0
7,0,0,0,0,3,512,73,0,0,0
8,0,0,0,0,0,516,71,0,0,0
9,0,0,0,0,0,517,71,0,0,0
10,0,0,0,0,0,516,71,0,0,0
11,0,0,0,0,3,515,73,0,0,0
12,0,0,0,0,0,520,73,0,0,0
13,0,0,0,0,0,523,73,0,0,0
14,0,0,0,0,0,525,74,0,0,0
15,0,0,0,0,3,526,73,0,0,0
0,0,0,0,0,0,512,71,0,0,0
1,0,0,0,0,0,450,72,0,0,0
2,0,0,0,0,0,446,72,0,0,0
3,0,0,0,0,3,511,71,0,0,0
4,0,0,0,0,0,570,71,0,0,0
5,0,0,0,0,0,503,71,0,0,0
6,0,0,0,0,0,512,73,0,0,0
7,0,0,0,0,3,523,73,0,0,0
8,0,0,0,0,0,519,74,0,0,0
9,0,0,0,0,0,517,74,0,0,0
10,0,0,0,0,0,519,74,0,0,0
11,0,0,0,0,3,517,74,0,0,0
12,0,0,0,0,0,517,73,0,0,0
13,0,0,0,0,0,515,73,0,0,0
14,0,0,0,0,0,514,73,0,0,0
15,0,0,0,0,3,511,73,0,0,0
0,0,0,0,0,0,512,72,0,0,0
1,0,0,0,0,0,511,71,0,0,0
2,0,0,0,0,0,508,73,0,0,0
3,0,0,0,0,3,504,73,0,0,0
4,0,0,0,0,0,499,73,0,0,0
5,0,0,0,0,0,495,73,0,0,0
6,0,0,0,0,0,494,73,0,0,0
7,0,0,0,0,0,490,73,0,0,0
8,0,0,0,0,0,490,71,0,0,0
9,0,0,0,0,0,490,73,0,0,0
10,0,0,0,0,0,486,74,0,0,0
11,0,0,0,0,3,487,73,0,0,0
12,0,0,0,0,0,496,73,0,0,0
13,0,0,0,0,0,505,74,0,0,0
14,0,0,0,0,0,519,74,0,0,0
15,0,0,0,0,3,522,73,0,0,0
0,0,0,0,0,0,525,74,0,0,0
1,0,0,0,0,0,522,71,0,0,0
2,0,0,0,0,0,521,71,0,0,0
3,0,0,0,0,3,517,71,0,0,0
4,0,0,0,0,0,513,72,0,0,0
5,0,0,0,0,0,507,73,0,0,0
6,0,0,0,0,0,505,74,0,0,0
7,0,0,0,0,3,508,74,0,0,0
8,0,0,0,0,0,504,72,0,0,0
9,0,0,0,0,0,504,71,0,0,0
10,0,0,0,0,0,510,73,0,0,0
11,0,0,0,0,3,512,73,0,0,0
12,0,0,0,0,0,515,74,0,0,0
13,0,0,0,0,0,513,74,0,0,0
14,0,0,0,0,0,515,74,0,0,0
15,0,0,0,0,3,515,73,0,0,0
0,0,0,0,0,0,515,71,0,0,0
1,0,0,0,0,0,515,72,0,0,0
2,0,0,0,0,0,512,72,0,0,0
3,0,0,0,0,3,509,73,0,0,0
4,0,0,0,0,0,510,74,0,0,0
5,0,0,0,0,0,513,72,0,0,0
6,0,0,0,0,0,520,71,0,0,0
7,0,0,0,0,3,520,73,0,0,0
8,0,0,0,0,0,523,73,0,0,0
9,0,0,0,0,0,516,73,0,0,0
10,0,0,0,0,0,516,73,0,0,0
11,0,0,0,0,3,513,72,0,0,0
12,0,0,0,0,0,514,72,0,0,0
13,0,0,0,0,0,516,73,0,0,0
14,0,0,0,0,0,518,71,0,0,0
15,0,0,0,0,3,523,72,0,0,0
0,0,0,0,0,0,524,71,0,0,0
1,0,0,0,0,0,519,71,0,0,0
2,0,0,0,0,0,523,71,0,0,0
3,0,0,0,0,0,523,71,0,0,0
4,0,0,0,0,0,527,72,0,0,0
5,0,0,0,0,0,524,74,0,0,0
6,0,0,0,0,0,522,73,0,0,0
7,0,0,0,0,3,515,73,0,0,0
8,0,0,0,0,0,512,73,0,0,0
9,0,0,0,0,0,507,73,0,0,0
10,0,0,0,0,0,504,73,0,0,0
11,0,0,0,0,3,507,73,0,0,0
12,0,0,0,0,0,509,73,0,0,0
13,0,0,0,0,0,519,73,0,0,0
14,0,0,0,0,0,526,73,0,0,0
15,0,0,0,0,3,524,73,0,0,0
0,0,0,0,0,0,520,73,0,0,0
1,0,0,0,0,0,515,73,0,0,0
2,0,0,0,0,0,515,73,0,0,0
3,0,0,0,0,3,512,74,0,0,0
4,0,0,0,0,0,513,73,0,0,0
5,0,0,0,0,0,515,73,0,0,0
6,0,0,0,0,0,504,73,0,0,0
7,0,0,0,0,3,444,73,0,0,0
8,0,0,0,0,0,437,73,0,0,0
9,0,0,0,0,0,493,73,0,0,0
10,0,0,0,0,0,566,73,0,0,0
11,0,0,0,0,3,500,71,0,0,0
12,0,0,0,0,0,495,73,0,0,0
13,0,0,0,0,0,504,73,0,0,0
14,0,0,0,0,0,508,73,0,0,0
15,0,0,0,0,3,505,73,0,0,0
0,0,0,0,0,0,510,73,0,0,0
1,0,0,0,0,0,509,73,0,0,0
2,0,0,0,0,0,506,73,0,0,0
3,0,0,0,0,3,504,73,0,0,0
4,0,0,0,0,0,507,73,0,0,0
5,0,0,0,0,0,508,73,0,0,0
6,0,0,0,0,0,505,73,0,0,0
7,0,0,0,0,3,499,72,0,0,0
8,0,0,0,0,0,495,72,0,0,0
9,0,0,0,0,0,491,71,0,0,0
10,0,0,0,0,0,489,72,0,0,0
11,0,0,0,0,3,486,73,0,0,0
12,0,0,0,0,0,488,73,0,0,0
13,0,0,0,0,0,482,73,0,0,0
14,0,0,0,0,0,480,71,0,0,0
15,0,0,0,0,0,477,71,0,0,0
0,0,0,0,0,0,478,73,0,0,0
1,0,0,0,0,0,480,72,0,0,0
2,0,0,0,0,0,489,71,0,0,0
3,0,0,0,0,3,499,71,0,0,0
4,0,0,0,0,0,516,71,0,0,0
5,0,0,0,0,0,519,71,0,0,0
6,0,0,0,0,0,524,73,0,0,0
7,0,0,0,0,3,520,73,0,0,0
8,0,0,0,0,0,518,73,0,0,0
9,0,0,0,0,0,514,73,0,0,0
10,0,0,0,0,0,515,73,0,0,0
11,0,0,0,0,3,511,73,0,0,0
12,0,0,0,0,0,515,73,0,0,0
13,0,0,0,0,0,515,73,0,0,0
14,0,0,0,0,0,515,72,0,0,0
15,0,0,0,0,3,512,71,0,0,0
0,0,0,0,0,0,510,71,0,0,0
1,0,0,0,0,0,507,72,0,0,0
2,0,0,0,0,0,508,73,0,0,0
3,0,0,0,0,1,504,73,0,0,0
4,0,0,0,0,0,501,73,0,0,0
5,0,0,0,0,0,498,73,0,0,0
6,0,0,0,0,0,500,73,0,0,0
7,0,0,0,0,3,502,73,0,0,0
8,0,0,0,0,0,504,72,0,0,0
9,0,0,0,0,0,503,73,0,0,0
10,0,0,0,0,0,505,73,0,0,0
11,0,0,0,0,3,507,73,0,0,0
12,0,0,0,0,0,510,73,0,0,0
