0,1,2,3,4,5,6,7,8,9,10
0,0,0,0,0,0,496,47,0,0,0
1,0,0,0,0,0,518,45,0,0,0
2,0,0,0,0,0,524,47,0,0,0
3,0,0,0,0,3,537,45,0,0,0
4,0,0,0,0,0,545,47,0,0,0
5,0,0,0,0,0,543,46,0,0,0
6,0,0,0,0,0,540,47,0,0,0
7,0,0,0,0,3,542,44,0,0,0
8,0,0,0,0,0,536,47,0,0,0
9,0,0,0,0,0,531,45,0,0,0
10,0,0,0,0,0,526,46,0,0,0
11,0,0,0,0,3,529,45,0,0,0
12,0,0,0,0,0,528,46,0,0,0
13,0,0,0,0,0,536,46,0,0,0
14,0,0,0,0,0,528,44,0,0,0
15,0,0,0,0,0,521,45,0,0,0
0,0,0,0,0,0,514,45,0,0,0
1,0,0,0,0,0,518,46,0,0,0
2,0,0,0,0,0,521,45,0,0,0
3,0,0,0,0,3,519,46,0,0,0
4,0,0,0,0,0,527,46,0,0,0
5,0,0,0,0,0,528,44,0,0,0
6,0,0,0,0,0,517,46,0,0,0
7,0,0,0,0,3,516,44,0,0,0
8,0,0,0,0,0,520,44,0,0,0
9,0,0,0,0,0,520,46,0,0,0
10,0,0,0,0,0,506,44,0,0,0
11,0,0,0,0,3,508,46,0,0,0
12,0,0,0,0,0,504,46,0,0,0
13,0,0,0,0,0,497,46,0,0,0
14,0,0,0,0,0,503,44,0,0,0
15,0,0,0,0,3,497,46,0,0,0
0,0,0,0,0,0,500,46,0,0,0
1,0,0,0,0,0,514,46,0,0,0
2,0,0,0,0,0,511,46,0,0,0
3,0,0,0,0,3,518,44,0,0,0
4,0,0,0,0,0,515,44,0,0,0
5,0,0,0,0,0,509,45,0,0,0
6,0,0,0,0,0,503,46,0,0,0
7,0,0,0,0,3,502,46,0,0,0
8,0,0,0,0,0,499,46,0,0,0
9,0,0,0,0,0,461,44,0,0,0
10,0,0,0,0,0,449,44,0,0,0
11,0,0,0,0,3,505,45,0,0,0
12,0,0,0,0,0,548,46,0,0,0
13,0,0,0,0,0,501,46,0,0,0
14,0,0,0,0,0,487,44,0,0,0
15,0,0,0,0,3,499,46,0,0,0
0,0,0,0,0,0,500,45,0,0,0
1,0,0,0,0,0,495,45,0,0,0
2,0,0,0,0,0,497,45,0,0,0
3,0,0,0,0,3,499,46,0,0,0
4,0,0,0,0,0,499,45,0,0,0
5,0,0,0,0,0,497,44,0,0,0
6,0,0,0,0,0,492,46,0,0,0
7,0,0,0,0,3,491,44,0,0,0
8,0,0,0,0,1,489,45,0,0,0
9,0,0,0,0,0,493,45,0,0,0
10,0,0,0,0,1,477,45,0,0,0
11,0,0,0,0,0,481,45,0,0,0
12,0,0,0,0,1,495,44,0,0,0
13,0,0,0,0,0,487,44,0,0,0
14,0,0,0,0,0,485,44,0,0,0
15,0,0,0,0,3,488,45,0,0,0
0,0,0,0,0,0,488,43,0,0,0
1,0,0,0,0,0,488,46,0,0,0
2,0,0,0,0,0,486,43,0,0,0
3,0,0,0,0,3,484,45,0,0,0
4,0,0,0,0,0,489,43,0,0,0
5,0,0,0,0,0,491,46,0,0,0
6,0,0,0,0,0,504,43,0,0,0
7,0,0,0,0,3,501,44,0,0,0
8,0,0,0,0,0,497,46,0,0,0
9,0,0,0,0,0,508,44,0,0,0
10,0,0,0,0,0,505,45,0,0,0
11,0,0,0,0,3,502,46,0,0,0
12,0,0,0,0,0,496,43,0,0,0
13,0,0,0,0,0,501,46,0,0,0
14,0,0,0,0,0,494,43,0,0,0
15,0,0,0,0,0,498,45,0,0,0
0,0,0,0,0,0,494,46,0,0,0
1,0,0,0,0,0,497,46,0,0,0
2,0,0,0,0,0,486,46,0,0,0
3,0,0,0,0,3,496,46,0,0,0
4,0,0,0,0,0,487,43,0,0,0
5,0,0,0,0,0,494,46,0,0,0
6,0,0,0,0,0,499,46,0,0,0
7,0,0,0,0,3,496,44,0,0,0
8,0,0,0,0,0,504,44,0,0,0
9,0,0,0,0,0,497,46,0,0,0
10,0,0,0,0,0,496,44,0,0,0
11,0,0,0,0,3,506,46,0,0,0
12,0,0,0,0,0,500,46,0,0,0
13,0,0,0,0,0,502,45,0,0,0
14,0,0,0,0,0,503,44,0,0,0
15,0,0,0,0,3,503,46,0,0,0
0,0,0,0,0,0,500,47,0,0,0
1,0,0,0,0,0,494,46,0,0,0
2,0,0,0,0,0,492,44,0,0,0
3,0,0,0,0,3,492,46,0,0,0
4,0,0,0,0,0,485,45,0,0,0
5,0,0,0,0,0,521,44,0,0,0
6,0,0,0,0,0,531,46,0,0,0
7,0,0,0,0,3,528,47,0,0,0
8,0,0,0,0,1,527,45,0,0,0
9,0,0,0,0,0,524,46,0,0,0
10,0,0,0,0,0,522,47,0,0,0
11,0,0,0,0,3,521,46,0,0,0
12,0,0,0,0,0,516,47,0,0,0
13,0,0,0,0,0,499,45,0,0,0
14,0,0,0,0,0,471,47,0,0,0
15,0,0,0,0,3,510,47,0,0,0
0,0,0,0,0,0,550,45,0,0,0
1,0,0,0,0,0,550,48,0,0,0
2,0,0,0,0,0,515,47,0,0,0
3,0,0,0,0,3,533,47,0,0,0
4,0,0,0,0,0,534,48,0,0,0
5,0,0,0,0,0,532,47,0,0,0
6,0,0,0,0,0,540,47,0,0,0
7,0,0,0,0,3,539,46,0,0,0
8,0,0,0,0,0,541,47,0,0,0
9,0,0,0,0,0,539,46,0,0,0
10,0,0,0,0,0,518,46,0,0,0
11,0,0,0,0,1,543,46,0,0,0
12,0,0,0,0,0,542,46,0,0,0
13,0,0,0,0,0,531,48,0,0,0
14,0,0,0,0,0,536,49,0,0,0
15,0,0,0,0,3,537,48,0,0,0
0,0,0,0,0,0,540,49,0,0,0
1,0,0,0,0,0,543,49,0,0,0
2,0,0,0,0,0,541,49,0,0,0
3,0,0,0,0,3,538,49,0,0,0
4,0,0,0,0,0,529,49,0,0,0
5,0,0,0,0,0,529,47,0,0,0
6,0,0,0,0,0,531,47,0,0,0
7,0,0,0,0,3,527,47,0,0,0
8,0,0,0,0,0,539,47,0,0,0
9,0,0,0,0,0,543,48,0,0,0
10,0,0,0,0,0,552,48,0,0,0
11,0,0,0,0,3,556,47,0,0,0
12,0,0,0,0,0,555,47,0,0,0
13,0,0,0,0,0,555,47,0,0,0
14,0,0,0,0,0,552,48,0,0,0
15,0,0,0,0,3,553,48,0,0,0
0,0,0,0,0,0,545,49,0,0,0
1,0,0,0,0,0,547,50,0,0,0
2,0,0,0,0,0,544,49,0,0,0
3,0,0,0,0,3,541,48,0,0,0
4,0,0,0,0,0,537,50,0,0,0
5,0,0,0,0,0,534,48,0,0,0
6,0,0,0,0,0,528,50,0,0,0
7,0,0,0,0,3,528,49,0,0,0
8,0,0,0,0,0,530,49,0,0,0
9,0,0,0,0,0,520,50,0,0,0
10,0,0,0,0,0,523,51,0,0,0
11,0,0,0,0,3,515,51,0,0,0
12,0,0,0,0,0,521,50,0,0,0
13,0,0,0,0,0,524,51,0,0,0
14,0,0,0,0,0,524,48,0,0,0
15,0,0,0,0,3,529,51,0,0,0
0,0,0,0,0,0,525,51,0,0,0
1,0,0,0,0,0,524,49,0,0,0
2,0,0,0,0,0,519,50,0,0,0
3,0,0,0,0,3,516,51,0,0,0
4,0,0,0,0,0,512,49,0,0,0
5,0,0,0,0,0,511,52,0,0,0
6,0,0,0,0,0,514,50,0,0,0
7,0,0,0,0,0,511,49,0,0,0
8,0,0,0,0,0,507,52,0,0,0
9,0,0,0,0,0,508,49,0,0,0
10,0,0,0,0,0,510,51,0,0,0
11,0,0,0,0,3,519,52,0,0,0
12,0,0,0,0,0,527,51,0,0,0
13,0,0,0,0,0,525,52,0,0,0
14,0,0,0,0,0,523,51,0,0,0
15,0,0,0,0,3,527,50,0,0,0
0,0,0,0,0,0,525,52,0,0,0
1,0,0,0,0,0,527,52,0,0,0
2,0,0,0,0,0,520,50,0,0,0
3,0,0,0,0,3,487,52,0,0,0
4,0,0,0,0,0,465,53,0,0,0
5,0,0,0,0,0,505,51,0,0,0
6,0,0,0,0,0,566,52,0,0,0
7,0,0,0,0,3,514,54,0,0,0
8,0,0,0,0,0,501,51,0,0,0
9,0,0,0,0,0,518,51,0,0,0
10,0,0,0,0,0,518,53,0,0,0
11,0,0,0,0,3,521,51,0,0,0
12,0,0,0,0,0,519,54,0,0,0
13,0,0,0,0,0,519,53,0,0,0
14,0,0,0,0,0,522,51,0,0,0
15,0,0,0,0,3,526,54,0,0,0
0,0,0,0,0,0,523,53,0,0,0
1,0,0,0,0,0,522,54,0,0,0
2,0,0,0,0,0,519,54,0,0,0
3,0,0,0,0,3,510,51,0,0,0
4,0,0,0,0,0,508,55,0,0,0
5,0,0,0,0,0,509,52,0,0,0
6,0,0,0,0,0,503,55,0,0,0
7,0,0,0,0,3,499,54,0,0,0
8,0,0,0,0,0,487,54,0,0,0
9,0,0,0,0,0,487,53,0,0,0
10,0,0,0,0,0,486,55,0,0,0
11,0,0,0,0,3,491,53,0,0,0
12,0,0,0,0,1,500,54,0,0,0
13,0,0,0,0,0,514,54,0,0,0
14,0,0,0,0,0,519,55,0,0,0
15,0,0,0,0,3,527,54,0,0,0
0,0,0,0,0,0,529,53,0,0,0
1,0,0,0,0,0,533,55,0,0,0
2,0,0,0,0,0,537,53,0,0,0
3,0,0,0,0,1,538,55,0,0,0
4,0,0,0,0,0,539,53,0,0,0
5,0,0,0,0,0,542,55,0,0,0
6,0,0,0,0,0,540,55,0,0,0
7,0,0,0,0,3,536,55,0,0,0
8,0,0,0,0,0,531,56,0,0,0
9,0,0,0,0,0,527,53,0,0,0
10,0,0,0,0,0,523,56,0,0,0
11,0,0,0,0,3,522,53,0,0,0
12,0,0,0,0,0,513,56,0,0,0
13,0,0,0,0,0,507,54,0,0,0
14,0,0,0,0,0,504,56,0,0,0
15,0,0,0,0,3,503,56,0,0,0
0,0,0,0,0,0,501,55,0,0,0
1,0,0,0,0,0,498,57,0,0,0
2,0,0,0,0,0,497,55,0,0,0
3,0,0,0,0,3,486,57,0,0,0
4,0,0,0,0,0,483,56,0,0,0
5,0,0,0,0,0,478,55,0,0,0
6,0,0,0,0,0,484,57,0,0,0
7,0,0,0,0,3,483,56,0,0,0
8,0,0,0,0,0,480,55,0,0,0
9,0,0,0,0,0,477,57,0,0,0
10,0,0,0,0,0,473,55,0,0,0
11,0,0,0,0,3,486,57,0,0,0
12,0,0,0,0,0,494,57,0,0,0
13,0,0,0,0,0,491,57,0,0,0
14,0,0,0,0,0,489,57,0,0,0
15,0,0,0,0,3,482,55,0,0,0
0,0,0,0,0,0,485,58,0,0,0
1,0,0,0,0,0,500,58,0,0,0
2,0,0,0,0,0,518,57,0,0,0
3,0,0,0,0,3,531,58,0,0,0
4,0,0,0,0,0,536,57,0,0,0
5,0,0,0,0,0,527,58,0,0,0
6,0,0,0,0,0,517,59,0,0,0
7,0,0,0,0,3,519,58,0,0,0
8,0,0,0,0,1,509,59,0,0,0
9,0,0,0,0,0,458,59,0,0,0
10,0,0,0,0,0,449,59,0,0,0
11,0,0,0,0,3,540,57,0,0,0
12,0,0,0,0,0,590,59,0,0,0
13,0,0,0,0,0,515,57,0,0,0
14,0,0,0,0,0,517,58,0,0,0
15,0,0,0,0,0,526,60,0,0,0
0,0,0,0,0,0,525,57,0,0,0
1,0,0,0,0,0,528,60,0,0,0
2,0,0,0,0,0,518,60,0,0,0
3,0,0,0,0,3,511,58,0,0,0
4,0,0,0,0,0,509,60,0,0,0
5,0,0,0,0,0,508,58,0,0,0
6,0,0,0,0,0,504,60,0,0,0
7,0,0,0,0,3,508,58,0,0,0
8,0,0,0,0,0,512,60,0,0,0
9,0,0,0,0,0,512,59,0,0,0
10,0,0,0,0,0,504,60,0,0,0
11,0,0,0,0,3,504,59,0,0,0
12,0,0,0,0,0,500,60,0,0,0
13,0,0,0,0,0,498,60,0,0,0
14,0,0,0,0,0,494,59,0,0,0
15,0,0,0,0,3,493,60,0,0,0
0,0,0,0,0,0,487,60,0,0,0
1,0,0,0,0,0,486,59,0,0,0
2,0,0,0,0,0,489,59,0,0,0
3,0,0,0,0,3,496,58,0,0,0
4,0,0,0,0,0,506,60,0,0,0
5,0,0,0,0,0,511,61,0,0,0
6,0,0,0,0,0,512,60,0,0,0
7,0,0,0,0,3,512,61,0,0,0
8,0,0,0,0,0,510,59,0,0,0
9,0,0,0,0,0,507,58,0,0,0
10,0,0,0,0,0,506,61,0,0,0
11,0,0,0,0,3,506,61,0,0,0
12,0,0,0,0,0,510,59,0,0,0
13,0,0,0,0,0,508,61,0,0,0
14,0,0,0,0,0,504,59,0,0,0
15,0,0,0,0,3,505,62,0,0,0
0,0,0,0,0,0,501,59,0,0,0
1,0,0,0,0,0,504,62,0,0,0
2,0,0,0,0,0,505,60,0,0,0
3,0,0,0,0,3,509,60,0,0,0
4,0,0,0,0,0,508,62,0,0,0
5,0,0,0,0,0,504,60,0,0,0
6,0,0,0,0,0,512,62,0,0,0
7,0,0,0,0,3,521,60,0,0,0
8,0,0,0,0,0,508,60,0,0,0
9,0,0,0,0,0,492,61,0,0,0
10,0,0,0,0,0,489,62,0,0,0
11,0,0,0,0,0,499,62,0,0,0
12,0,0,0,0,0,508,61,0,0,0
13,0,0,0,0,0,520,61,0,0,0
14,0,0,0,0,0,515,62,0,0,0
15,0,0,0,0,3,508,62,0,0,0
0,0,0,0,0,0,508,60,0,0,0
1,0,0,0,0,0,508,62,0,0,0
2,0,0,0,0,0,498,60,0,0,0
3,0,0,0,0,3,500,63,0,0,0
4,0,0,0,0,0,501,62,0,0,0
5,0,0,0,0,0,516,61,0,0,0
6,0,0,0,0,0,527,60,0,0,0
7,0,0,0,0,3,533,62,0,0,0
8,0,0,0,0,0,529,63,0,0,0
9,0,0,0,0,0,527,61,0,0,0
10,0,0,0,0,0,530,60,0,0,0
11,0,0,0,0,3,531,61,0,0,0
12,0,0,0,0,0,534,63,0,0,0
13,0,0,0,0,0,512,63,0,0,0
14,0,0,0,0,0,444,60,0,0,0
15,0,0,0,0,0,464,62,0,0,0
0,0,0,0,0,0,549,63,0,0,0
1,0,0,0,0,0,560,62,0,0,0
2,0,0,0,0,0,500,60,0,0,0
3,0,0,0,0,3,511,63,0,0,0
4,0,0,0,0,0,513,63,0,0,0
5,0,0,0,0,0,507,62,0,0,0
6,0,0,0,0,0,502,61,0,0,0
7,0,0,0,0,3,499,63,0,0,0
8,0,0,0,0,0,499,63,0,0,0
9,0,0,0,0,0,503,61,0,0,0
10,0,0,0,0,0,499,63,0,0,0
11,0,0,0,0,3,495,62,0,0,0
12,0,0,0,0,0,491,62,0,0,0
13,0,0,0,0,0,488,63,0,0,0
14,0,0,0,0,0,489,61,0,0,0
15,0,0,0,0,3,488,63,0,0,0
0,0,0,0,0,0,479,62,0,0,0
1,0,0,0,0,0,467,62,0,0,0
2,0,0,0,0,0,463,61,0,0,0
3,0,0,0,0,3,466,63,0,0,0
4,0,0,0,0,1,470,63,0,0,0
5,0,0,0,0,0,473,63,0,0,0
6,0,0,0,0,0,475,63,0,0,0
7,0,0,0,0,0,482,63,0,0,0
8,0,0,0,0,0,488,63,0,0,0
9,0,0,0,0,0,499,61,0,0,0
10,0,0,0,0,0,506,63,0,0,0
11,0,0,0,0,3,509,62,0,0,0
12,0,0,0,0,0,512,62,0,0,0
13,0,0,0,0,0,514,63,0,0,0
14,0,0,0,0,0,513,63,0,0,0
15,0,0,0,0,3,515,63,0,0,0
0,0,0,0,0,0,512,64,0,0,0
1,0,0,0,0,0,505,62,0,0,0
2,0,0,0,0,0,502,62,0,0,0
3,0,0,0,0,3,503,64,0,0,0
4,0,0,0,0,0,503,63,0,0,0
5,0,0,0,0,0,504,62,0,0,0
6,0,0,0,0,0,508,63,0,0,0
7,0,0,0,0,3,510,64,0,0,0
8,0,0,0,0,0,516,62,0,0,0
9,0,0,0,0,0,521,62,0,0,0
10,0,0,0,0,0,521,62,0,0,0
11,0,0,0,0,0,522,63,0,0,0
12,0,0,0,0,0,520,64,0,0,0
13,0,0,0,0,0,515,64,0,0,0
14,0,0,0,0,0,510,63,0,0,0
15,0,0,0,0,3,510,63,0,0,0
0,0,0,0,0,0,510,64,0,0,0
1,0,0,0,0,0,505,64,0,0,0
2,0,0,0,0,0,499,65,0,0,0
3,0,0,0,0,3,498,64,0,0,0
4,0,0,0,0,0,490,62,0,0,0
5,0,0,0,0,0,491,63,0,0,0
6,0,0,0,0,0,492,64,0,0,0
7,0,0,0,0,3,494,65,0,0,0
8,0,0,0,0,0,507,64,0,0,0
9,0,0,0,0,0,519,62,0,0,0
10,0,0,0,0,0,524,64,0,0,0
11,0,0,0,0,3,522,65,0,0,0
12,0,0,0,0,0,519,65,0,0,0
13,0,0,0,0,0,515,63,0,0,0
14,0,0,0,0,0,520,63,0,0,0
15,0,0,0,0,3,522,64,0,0,0
0,0,0,0,0,0,478,64,0,0,0
1,0,0,0,0,0,444,65,0,0,0
2,0,0,0,0,0,497,65,0,0,0
3,0,0,0,0,3,575,65,0,0,0
4,0,0,0,0,0,521,63,0,0,0
5,0,0,0,0,0,498,65,0,0,0
6,0,0,0,0,0,514,63,0,0,0
7,0,0,0,0,3,518,65,0,0,0
8,0,0,0,0,0,518,65,0,0,0
9,0,0,0,0,0,514,64,0,0,0
10,0,0,0,0,0,510,64,0,0,0
11,0,0,0,0,3,510,65,0,0,0
12,0,0,0,0,0,510,63,0,0,0
13,0,0,0,0,0,508,63,0,0,0
14,0,0,0,0,0,508,65,0,0,0
15,0,0,0,0,3,507,66,0,0,0
0,0,0,0,0,0,507,63,0,0,0
1,0,0,0,0,0,504,64,0,0,0
2,0,0,0,0,0,504,65,0,0,0
3,0,0,0,0,3,500,66,0,0,0
4,0,0,0,0,0,497,63,0,0,0
5,0,0,0,0,0,494,63,0,0,0
6,0,0,0,0,0,489,66,0,0,0
7,0,0,0,0,0,487,65,0,0,0
8,0,0,0,0,0,488,64,0,0,0
9,0,0,0,0,0,492,65,0,0,0
10,0,0,0,0,0,500,66,0,0,0
11,0,0,0,0,3,510,64,0,0,0
12,0,0,0,0,0,518,64,0,0,0
13,0,0,0,0,0,524,65,0,0,0
14,0,0,0,0,0,531,66,0,0,0
15,0,0,0,0,3,535,63,0,0,0
0,0,0,0,0,0,536,66,0,0,0
1,0,0,0,0,0,535,66,0,0,0
2,0,0,0,0,0,531,63,0,0,0
3,0,0,0,0,3,526,66,0,0,0
4,0,0,0,0,0,522,65,0,0,0
5,0,0,0,0,0,520,63,0,0,0
6,0,0,0,0,0,519,66,0,0,0
7,0,0,0,0,3,518,63,0,0,0
8,0,0,0,0,0,519,66,0,0,0
9,0,0,0,0,0,518,64,0,0,0
10,0,0,0,0,0,514,66,0,0,0
11,0,0,0,0,3,512,65,0,0,0
12,0,0,0,0,0,510,65,0,0,0
13,0,0,0,0,0,509,66,0,0,0
14,0,0,0,0,0,512,66,0,0,0
15,0,0,0,0,3,510,65,0,0,0
0,0,0,0,0,0,508,64,0,0,0
1,0,0,0,0,0,509,64,0,0,0
2,0,0,0,0,0,509,64,0,0,0
3,0,0,0,0,3,510,66,0,0,0
4,0,0,0,0,0,507,65,0,0,0
5,0,0,0,0,0,504,66,0,0,0
6,0,0,0,0,0,499,66,0,0,0
7,0,0,0,0,3,492,64,0,0,0
8,0,0,0,0,0,493,66,0,0,0
9,0,0,0,0,0,496,66,0,0,0
10,0,0,0,0,0,500,64,0,0,0
11,0,0,0,0,3,512,66,0,0,0
12,0,0,0,0,0,524,66,0,0,0
13,0,0,0,0,0,524,65,0,0,0
14,0,0,0,0,0,523,66,0,0,0
15,0,0,0,0,3,521,67,0,0,0
0,0,0,0,0,0,519,64,0,0,0
1,0,0,0,0,0,523,64,0,0,0
2,0,0,0,0,0,515,66,0,0,0
3,0,0,0,0,1,475,65,0,0,0
4,0,0,0,0,0,438,65,0,0,0
5,0,0,0,0,0,489,66,0,0,0
6,0,0,0,0,0,577,65,0,0,0
7,0,0,0,0,3,520,64,0,0,0
8,0,0,0,0,0,504,64,0,0,0
9,0,0,0,0,0,518,66,0,0,0
10,0,0,0,0,0,521,65,0,0,0
11,0,0,0,0,3,519,66,0,0,0
12,0,0,0,0,0,517,65,0,0,0
13,0,0,0,0,0,517,64,0,0,0
14,0,0,0,0,0,518,66,0,0,0
15,0,0,0,0,3,516,67,0,0,0
0,0,0,0,0,0,512,65,0,0,0
1,0,0,0,0,0,510,64,0,0,0
2,0,0,0,0,0,511,66,0,0,0
3,0,0,0,0,3,508,66,0,0,0
4,0,0,0,0,0,506,64,0,0,0
5,0,0,0,0,0,507,66,0,0,0
6,0,0,0,0,0,504,64,0,0,0
7,0,0,0,0,3,500,65,0,0,0
8,0,0,0,0,0,497,67,0,0,0
9,0,0,0,0,0,491,66,0,0,0
10,0,0,0,0,0,492,64,0,0,0
11,0,0,0,0,3,491,64,0,0,0
12,0,0,0,0,0,491,64,0,0,0
13,0,0,0,0,0,497,64,0,0,0
14,0,0,0,0,0,506,65,0,0,0
15,0,0,0,0,3,517,66,0,0,0
0,0,0,0,0,0,525,67,0,0,0
1,0,0,0,0,0,528,66,0,0,0
2,0,0,0,0,0,527,64,0,0,0
3,0,0,0,0,3,527,65,0,0,0
4,0,0,0,0,0,527,66,0,0,0
5,0,0,0,0,0,523,66,0,0,0
6,0,0,0,0,0,518,67,0,0,0
7,0,0,0,0,3,515,64,0,0,0
8,0,0,0,0,0,513,66,0,0,0
9,0,0,0,0,0,512,67,0,0,0
10,0,0,0,0,0,510,65,0,0,0
11,0,0,0,0,3,509,66,0,0,0
12,0,0,0,0,0,508,66,0,0,0
13,0,0,0,0,0,507,64,0,0,0
14,0,0,0,0,0,506,67,0,0,0
15,0,0,0,0,1,507,65,0,0,0
0,0,0,0,0,0,508,65,0,0,0
1,0,0,0,0,0,510,67,0,0,0
2,0,0,0,0,0,508,65,0,0,0
3,0,0,0,0,3,506,67,0,0,0
4,0,0,0,0,0,507,66,0,0,0
5,0,0,0,0,0,505,64,0,0,0
6,0,0,0,0,0,505,66,0,0,0
7,0,0,0,0,3,502,66,0,0,0
8,0,0,0,0,0,503,67,0,0,0
9,0,0,0,0,0,503,67,0,0,0
10,0,0,0,0,0,493,67,0,0,0
11,0,0,0,0,3,495,66,0,0,0
12,0,0,0,0,0,496,64,0,0,0
13,0,0,0,0,0,504,65,0,0,0
14,0,0,0,0,0,515,67,0,0,0
15,0,0,0,0,3,524,66,0,0,0
0,0,0,0,0,0,524,67,0,0,0
1,0,0,0,0,0,527,67,0,0,0
2,0,0,0,0,0,526,67,0,0,0
3,0,0,0,0,3,524,65,0,0,0
4,0,0,0,0,0,529,67,0,0,0
5,0,0,0,0,0,523,67,0,0,0
6,0,0,0,0,0,467,65,0,0,0
7,0,0,0,0,3,436,67,0,0,0
8,0,0,0,0,0,505,67,0,0,0
9,0,0,0,0,0,587,65,0,0,0
10,0,0,0,0,0,517,65,0,0,0
11,0,0,0,0,3,513,67,0,0,0
12,0,0,0,0,0,525,67,0,0,0
13,0,0,0,0,0,526,66,0,0,0
14,0,0,0,0,0,521,65,0,0,0
15,0,0,0,0,3,520,67,0,0,0
0,0,0,0,0,0,522,66,0,0,0
1,0,0,0,0,0,521,67,0,0,0
2,0,0,0,0,0,519,66,0,0,0
3,0,0,0,0,3,515,67,0,0,0
4,0,0,0,0,0,513,65,0,0,0
5,0,0,0,0,0,509,67,0,0,0
6,0,0,0,0,0,507,67,0,0,0
7,0,0,0,0,3,507,66,0,0,0
8,0,0,0,0,0,507,67,0,0,0
9,0,0,0,0,0,505,68,0,0,0
10,0,0,0,0,0,500,67,0,0,0
11,0,0,0,0,0,494,66,0,0,0
12,0,0,0,0,0,491,67,0,0,0
13,0,0,0,0,0,486,65,0,0,0
14,0,0,0,0,0,483,67,0,0,0
15,0,0,0,0,3,486,67,0,0,0
0,0,0,0,0,1,492,67,0,0,0
1,0,0,0,0,0,499,65,0,0,0
2,0,0,0,0,0,508,67,0,0,0
3,0,0,0,0,3,516,67,0,0,0
4,0,0,0,0,0,518,66,0,0,0
5,0,0,0,0,0,521,67,0,0,0
6,0,0,0,0,0,523,66,0,0,0
7,0,0,0,0,3,523,65,0,0,0
8,0,0,0,0,0,525,67,0,0,0
9,0,0,0,0,0,526,65,0,0,0
10,0,0,0,0,0,524,68,0,0,0
11,0,0,0,0,3,525,65,0,0,0
12,0,0,0,0,0,526,67,0,0,0
13,0,0,0,0,0,524,67,0,0,0
14,0,0,0,0,0,521,67,0,0,0
15,0,0,0,0,3,519,68,0,0,0
0,0,0,0,0,0,517,65,0,0,0
1,0,0,0,0,0,517,67,0,0,0
2,0,0,0,0,0,516,68,0,0,0
3,0,0,0,0,3,517,66,0,0,0
4,0,0,0,0,0,515,65,0,0,0
5,0,0,0,0,0,511,66,0,0,0
6,0,0,0,0,0,510,67,0,0,0
7,0,0,0,0,3,510,67,0,0,0
8,0,0,0,0,0,509,65,0,0,0
9,0,0,0,0,0,510,68,0,0,0
10,0,0,0,0,0,507,65,0,0,0
11,0,0,0,0,3,504,68,0,0,0
12,0,0,0,0,0,502,66,0,0,0
13,0,0,0,0,0,506,67,0,0,0
14,0,0,0,0,0,503,67,0,0,0
15,0,0,0,0,3,498,67,0,0,0
0,0,0,0,0,0,502,67,0,0,0
1,0,0,0,0,0,503,68,0,0,0
2,0,0,0,0,0,513,66,0,0,0
3,0,0,0,0,3,519,65,0,0,0
4,0,0,0,0,0,524,67,0,0,0
5,0,0,0,0,0,524,65,0,0,0
6,0,0,0,0,0,523,67,0,0,0
7,0,0,0,0,0,519,68,0,0,0
8,0,0,0,0,0,520,67,0,0,0
9,0,0,0,0,0,524,66,0,0,0
10,0,0,0,0,0,501,67,0,0,0
11,0,0,0,0,3,439,67,0,0,0
12,0,0,0,0,0,461,65,0,0,0
13,0,0,0,0,0,555,67,0,0,0
14,0,0,0,0,0,547,68,0,0,0
15,0,0,0,0,3,499,67,0,0,0
0,0,0,0,0,0,513,65,0,0,0
1,0,0,0,0,0,519,67,0,0,0
2,0,0,0,0,0,520,68,0,0,0
3,0,0,0,0,3,518,65,0,0,0
4,0,0,0,0,0,519,67,0,0,0
5,0,0,0,0,0,515,68,0,0,0
6,0,0,0,0,0,514,65,0,0,0
7,0,0,0,0,3,511,68,0,0,0
8,0,0,0,0,0,502,67,0,0,0
9,0,0,0,0,0,498,65,0,0,0
10,0,0,0,0,0,496,65,0,0,0
11,0,0,0,0,0,498,66,0,0,0
12,0,0,0,0,0,500,67,0,0,0
13,0,0,0,0,0,501,68,0,0,0
14,0,0,0,0,0,500,65,0,0,0
15,0,0,0,0,3,497,67,0,0,0
0,0,0,0,0,0,493,66,0,0,0
1,0,0,0,0,0,490,67,0,0,0
2,0,0,0,0,0,489,66,0,0,0
3,0,0,0,0,3,491,66,0,0,0
4,0,0,0,0,0,496,67,0,0,0
5,0,0,0,0,0,504,67,0,0,0
6,0,0,0,0,0,512,67,0,0,0
7,0,0,0,0,3,520,67,0,0,0
8,0,0,0,0,0,527,67,0,0,0
9,0,0,0,0,0,531,67,0,0,0
10,0,0,0,0,0,532,67,0,0,0
11,0,0,0,0,3,529,65,0,0,0
12,0,0,0,0,0,527,67,0,0,0
13,0,0,0,0,0,521,67,0,0,0
14,0,0,0,0,0,512,65,0,0,0
15,0,0,0,0,3,509,67,0,0,0
0,0,0,0,0,0,508,67,0,0,0
1,0,0,0,0,0,506,65,0,0,0
2,0,0,0,0,0,508,67,0,0,0
3,0,0,0,0,1,506,67,0,0,0
4,0,0,0,0,0,504,65,0,0,0
5,0,0,0,0,0,504,67,0,0,0
6,0,0,0,0,0,507,66,0,0,0
7,0,0,0,0,3,511,67,0,0,0
8,0,0,0,0,0,512,65,0,0,0
9,0,0,0,0,0,509,67,0,0,0
10,0,0,0,0,0,511,66,0,0,0
11,0,0,0,0,3,511,67,0,0,0
12,0,0,0,0,0,515,65,0,0,0
13,0,0,0,0,0,515,66,0,0,0
14,0,0,0,0,0,513,67,0,0,0
15,0,0,0,0,3,514,67,0,0,0
0,0,0,0,0,0,513,65,0,0,0
1,0,0,0,0,0,505,67,0,0,0
2,0,0,0,0,0,504,66,0,0,0
3,0,0,0,0,3,502,67,0,0,0
4,0,0,0,0,0,495,67,0,0,0
5,0,0,0,0,0,504,66,0,0,0
6,0,0,0,0,0,508,67,0,0,0
7,0,0,0,0,0,515,65,0,0,0
8,0,0,0,0,0,523,67,0,0,0
9,0,0,0,0,0,531,65,0,0,0
10,0,0,0,0,0,527,67,0,0,0
11,0,0,0,0,3,526,65,0,0,0
12,0,0,0,0,0,525,65,0,0,0
13,0,0,0,0,0,522,67,0,0,0
14,0,0,0,0,0,527,66,0,0,0
15,0,0,0,0,3,518,66,0,0,0
0,0,0,0,0,0,457,67,0,0,0
1,0,0,0,0,0,439,65,0,0,0
2,0,0,0,0,0,503,67,0,0,0
3,0,0,0,0,3,575,66,0,0,0
4,0,0,0,0,0,507,65,0,0,0
5,0,0,0,0,0,504,67,0,0,0
6,0,0,0,0,0,515,65,0,0,0
7,0,0,0,0,3,517,64,0,0,0
8,0,0,0,0,0,515,67,0,0,0
9,0,0,0,0,0,512,67,0,0,0
10,0,0,0,0,0,512,64,0,0,0
11,0,0,0,0,3,511,67,0,0,0
12,0,0,0,0,0,508,64,0,0,0
13,0,0,0,0,0,508,66,0,0,0
14,0,0,0,0,0,507,66,0,0,0
15,0,0,0,0,3,503,66,0,0,0
0,0,0,0,0,0,497,66,0,0,0
1,0,0,0,0,0,497,64,0,0,0
2,0,0,0,0,0,497,67,0,0,0
3,0,0,0,0,3,498,64,0,0,0
4,0,0,0,0,0,495,64,0,0,0
5,0,0,0,0,0,489,64,0,0,0
6,0,0,0,0,0,487,66,0,0,0
7,0,0,0,0,3,488,67,0,0,0
8,0,0,0,0,0,488,65,0,0,0
9,0,0,0,0,0,487,66,0,0,0
10,0,0,0,0,0,494,66,0,0,0
11,0,0,0,0,3,503,64,0,0,0
12,0,0,0,0,1,510,65,0,0,0
13,0,0,0,0,0,517,66,0,0,0
14,0,0,0,0,0,522,67,0,0,0
15,0,0,0,0,3,529,64,0,0,0
0,0,0,0,0,0,528,64,0,0,0
1,0,0,0,0,0,523,66,0,0,0
2,0,0,0,0,0,518,65,0,0,0
3,0,0,0,0,0,519,64,0,0,0
4,0,0,0,0,0,518,65,0,0,0
5,0,0,0,0,0,519,66,0,0,0
6,0,0,0,0,0,521,64,0,0,0
7,0,0,0,0,3,518,66,0,0,0
8,0,0,0,0,0,518,64,0,0,0
9,0,0,0,0,0,513,65,0,0,0
10,0,0,0,0,0,510,66,0,0,0
11,0,0,0,0,3,508,66,0,0,0
12,0,0,0,0,0,508,63,0,0,0
13,0,0,0,0,0,508,64,0,0,0
14,0,0,0,0,0,505,65,0,0,0
15,0,0,0,0,3,507,66,0,0,0
0,0,0,0,0,0,505,64,0,0,0
1,0,0,0,0,0,504,65,0,0,0
2,0,0,0,0,0,503,64,0,0,0
3,0,0,0,0,3,504,66,0,0,0
4,0,0,0,0,0,503,66,0,0,0
5,0,0,0,0,0,503,64,0,0,0
6,0,0,0,0,0,504,65,0,0,0
7,0,0,0,0,3,505,66,0,0,0
8,0,0,0,0,0,506,65,0,0,0
9,0,0,0,0,0,504,64,0,0,0
10,0,0,0,0,0,500,66,0,0,0
11,0,0,0,0,3,496,65,0,0,0
12,0,0,0,0,0,490,65,0,0,0
13,0,0,0,0,0,492,63,0,0,0
14,0,0,0,0,0,495,65,0,0,0
15,0,0,0,0,3,504,66,0,0,0
0,0,0,0,0,0,514,66,0,0,0
1,0,0,0,0,0,520,64,0,0,0
2,0,0,0,0,0,520,64,0,0,0
3,0,0,0,0,3,522,65,0,0,0
4,0,0,0,0,0,520,66,0,0,0
5,0,0,0,0,0,522,63,0,0,0
6,0,0,0,0,0,526,66,0,0,0
7,0,0,0,0,3,508,63,0,0,0
8,0,0,0,0,0,444,63,0,0,0
9,0,0,0,0,0,452,65,0,0,0
10,0,0,0,0,0,534,65,0,0,0
11,0,0,0,0,3,552,63,0,0,0
12,0,0,0,0,0,494,63,0,0,0
13,0,0,0,0,0,508,65,0,0,0
14,0,0,0,0,0,513,66,0,0,0
15,0,0,0,0,1,516,66,0,0,0
0,0,0,0,0,0,511,63,0,0,0
1,0,0,0,0,0,512,65,0,0,0
2,0,0,0,0,0,511,65,0,0,0
3,0,0,0,0,3,510,64,0,0,0
4,0,0,0,0,0,509,66,0,0,0
5,0,0,0,0,0,506,66,0,0,0
6,0,0,0,0,0,503,63,0,0,0
7,0,0,0,0,3,499,66,0,0,0
8,0,0,0,0,0,497,63,0,0,0
9,0,0,0,0,0,499,65,0,0,0
10,0,0,0,0,0,497,65,0,0,0
11,0,0,0,0,3,499,65,0,0,0
12,0,0,0,0,0,494,64,0,0,0
13,0,0,0,0,0,492,65,0,0,0
14,0,0,0,0,0,489,63,0,0,0
15,0,0,0,0,3,489,65,0,0,0
0,0,0,0,0,0,490,64,0,0,0
1,0,0,0,0,0,493,65,0,0,0
2,0,0,0,0,0,497,63,0,0,0
3,0,0,0,0,3,509,65,0,0,0
4,0,0,0,0,0,516,65,0,0,0
5,0,0,0,0,0,523,63,0,0,0
6,0,0,0,0,0,526,65,0,0,0
7,0,0,0,0,3,527,63,0,0,0
8,0,0,0,0,0,525,64,0,0,0
9,0,0,0,0,0,522,65,0,0,0
10,0,0,0,0,0,520,63,0,0,0
11,0,0,0,0,3,519,65,0,0,0
12,0,0,0,0,0,515,64,0,0,0
13,0,0,0,0,0,515,65,0,0,0
14,0,0,0,0,0,515,65,0,0,0
15,0,0,0,0,3,515,63,0,0,0
0,0,0,0,0,0,513,63,0,0,0
1,0,0,0,0,0,511,65,0,0,0
2,0,0,0,0,0,508,65,0,0,0
3,0,0,0,0,3,511,64,0,0,0
4,0,0,0,0,0,513,65,0,0,0
5,0,0,0,0,0,511,64,0,0,0
6,0,0,0,0,0,512,63,0,0,0
7,0,0,0,0,3,512,65,0,0,0
8,0,0,0,0,0,511,63,0,0,0
9,0,0,0,0,0,510,65,0,0,0
10,0,0,0,0,0,508,65,0,0,0
11,0,0,0,0,0,507,63,0,0,0
12,0,0,0,0,0,505,64,0,0,0
13,0,0,0,0,0,505,65,0,0,0
14,0,0,0,0,0,505,65,0,0,0
15,0,0,0,0,3,507,64,0,0,0
0,0,0,0,0,0,509,65,0,0,0
1,0,0,0,0,0,510,65,0,0,0
2,0,0,0,0,0,511,65,0,0,0
3,0,0,0,0,3,516,65,0,0,0
4,0,0,0,0,0,512,65,0,0,0
5,0,0,0,0,0,511,65,0,0,0
6,0,0,0,0,0,508,63,0,0,0
7,0,0,0,0,3,497,63,0,0,0
8,0,0,0,0,0,497,65,0,0,0
9,0,0,0,0,0,501,64,0,0,0
10,0,0,0,0,0,505,63,0,0,0
11,0,0,0,0,3,515,63,0,0,0
12,0,0,0,0,0,524,63,0,0,0
13,0,0,0,0,0,528,65,0,0,0
14,0,0,0,0,0,523,65,0,0,0
15,0,0,0,0,3,520,65,0,0,0
0,0,0,0,0,0,519,63,0,0,0
1,0,0,0,0,0,524,65,0,0,0
2,0,0,0,0,0,526,65,0,0,0
3,0,0,0,0,3,496,65,0,0,0
4,0,0,0,0,0,442,65,0,0,0
5,0,0,0,0,0,481,65,0,0,0
6,0,0,0,0,0,566,65,0,0,0
7,0,0,0,0,3,548,62,0,0,0
8,0,0,0,0,1,509,65,0,0,0
9,0,0,0,0,0,524,65,0,0,0
10,0,0,0,0,0,527,65,0,0,0
11,0,0,0,0,3,526,63,0,0,0
12,0,0,0,0,0,523,65,0,0,0
13,0,0,0,0,0,524,65,0,0,0
14,0,0,0,0,0,522,63,0,0,0
15,0,0,0,0,3,521,63,0,0,0
0,0,0,0,0,0,519,62,0,0,0
1,0,0,0,0,0,517,63,0,0,0
2,0,0,0,0,0,512,64,0,0,0
3,0,0,0,0,3,512,64,0,0,0
4,0,0,0,0,0,509,64,0,0,0
5,0,0,0,0,0,507,64,0,0,0
6,0,0,0,0,0,505,64,0,0,0
7,0,0,0,0,1,502,64,0,0,0
8,0,0,0,0,0,500,64,0,0,0
9,0,0,0,0,0,500,65,0,0,0
10,0,0,0,0,0,496,64,0,0,0
11,0,0,0,0,3,498,62,0,0,0
12,0,0,0,0,0,495,62,0,0,0
13,0,0,0,0,0,498,62,0,0,0
14,0,0,0,0,0,504,63,0,0,0
15,0,0,0,0,3,511,62,0,0,0
0,0,0,0,0,0,518,63,0,0,0
1,0,0,0,0,0,525,64,0,0,0
2,0,0,0,0,0,530,64,0,0,0
3,0,0,0,0,3,531,62,0,0,0
4,0,0,0,0,0,533,62,0,0,0
5,0,0,0,0,0,535,63,0,0,0
6,0,0,0,0,0,534,64,0,0,0
7,0,0,0,0,3,536,64,0,0,0
8,0,0,0,0,0,532,64,0,0,0
9,0,0,0,0,0,530,64,0,0,0
10,0,0,0,0,0,530,64,0,0,0
11,0,0,0,0,3,527,63,0,0,0
12,0,0,0,0,0,527,62,0,0,0
13,0,0,0,0,0,529,64,0,0,0
14,0,0,0,0,0,535,63,0,0,0
15,0,0,0,0,3,536,63,0,0,0
0,0,0,0,0,0,527,62,0,0,0
1,0,0,0,0,0,514,63,0,0,0
2,0,0,0,0,0,500,63,0,0,0
3,0,0,0,0,3,492,62,0,0,0
4,0,0,0,0,1,492,64,0,0,0
5,0,0,0,0,0,491,64,0,0,0
6,0,0,0,0,0,491,64,0,0,0
7,0,0,0,0,3,492,63,0,0,0
8,0,0,0,0,0,493,63,0,0,0
9,0,0,0,0,0,491,62,0,0,0
10,0,0,0,0,0,492,62,0,0,0
11,0,0,0,0,3,495,62,0,0,0
12,0,0,0,0,0,495,62,0,0,0
13,0,0,0,0,0,496,62,0,0,0
14,0,0,0,0,0,502,63,0,0,0
15,0,0,0,0,3,504,64,0,0,0
0,0,0,0,0,0,504,64,0,0,0
1,0,0,0,0,0,508,64,0,0,0
2,0,0,0,0,0,501,64,0,0,0
3,0,0,0,0,0,500,64,0,0,0
4,0,0,0,0,1,503,64,0,0,0
5,0,0,0,0,0,498,64,0,0,0
6,0,0,0,0,0,500,64,0,0,0
7,0,0,0,0,3,503,64,0,0,0
8,0,0,0,0,0,504,63,0,0,0
9,0,0,0,0,0,515,63,0,0,0
10,0,0,0,0,0,520,63,0,0,0
11,0,0,0,0,3,524,63,0,0,0
12,0,0,0,0,0,523,63,0,0,0
13,0,0,0,0,0,523,63,0,0,0
14,0,0,0,0,0,517,63,0,0,0
15,0,0,0,0,3,518,63,0,0,0
0,0,0,0,0,0,517,62,0,0,0
1,0,0,0,0,0,481,61,0,0,0
2,0,0,0,0,0,448,62,0,0,0
3,0,0,0,0,3,486,62,0,0,0
4,0,0,0,0,0,562,63,0,0,0
5,0,0,0,0,0,525,64,0,0,0
6,0,0,0,0,0,504,64,0,0,0
7,0,0,0,0,0,519,62,0,0,0
8,0,0,0,0,0,521,63,0,0,0
9,0,0,0,0,0,527,63,0,0,0
10,0,0,0,0,0,525,63,0,0,0
11,0,0,0,0,3,524,64,0,0,0
12,0,0,0,0,0,523,63,0,0,0
13,0,0,0,0,0,517,64,0,0,0
14,0,0,0,0,0,512,63,0,0,0
15,0,0,0,0,3,513,64,0,0,0
0,0,0,0,0,0,511,63,0,0,0
1,0,0,0,0,0,516,63,0,0,0
2,0,0,0,0,0,515,63,0,0,0
3,0,0,0,0,3,509,63,0,0,0
4,0,0,0,0,0,507,62,0,0,0
5,0,0,0,0,0,502,63,0,0,0
6,0,0,0,0,0,494,63,0,0,0
7,0,0,0,0,3,486,63,0,0,0
8,0,0,0,0,0,484,63,0,0,0
9,0,0,0,0,0,487,62,0,0,0
10,0,0,0,0,0,485,62,0,0,0
11,0,0,0,0,3,491,61,0,0,0
12,0,0,0,0,0,498,63,0,0,0
13,0,0,0,0,0,506,63,0,0,0
14,0,0,0,0,0,514,63,0,0,0
15,0,0,0,0,0,518,63,0,0,0
0,0,0,0,0,0,521,63,0,0,0
1,0,0,0,0,0,522,63,0,0,0
2,0,0,0,0,0,522,61,0,0,0
3,0,0,0,0,3,523,61,0,0,0
4,0,0,0,0,0,522,62,0,0,0
5,0,0,0,0,0,522,63,0,0,0
6,0,0,0,0,0,520,63,0,0,0
7,0,0,0,0,3,520,63,0,0,0
8,0,0,0,0,0,516,63,0,0,0
9,0,0,0,0,0,513,61,0,0,0
10,0,0,0,0,0,511,63,0,0,0
11,0,0,0,0,3,508,63,0,0,0
12,0,0,0,0,0,509,63,0,0,0
13,0,0,0,0,0,510,62,0,0,0
14,0,0,0,0,0,511,61,0,0,0
15,0,0,0,0,3,516,63,0,0,0
0,0,0,0,0,0,516,63,0,0,0
1,0,0,0,0,0,515,63,0,0,0
2,0,0,0,0,0,514,63,0,0,0
3,0,0,0,0,0,515,61,0,0,0
4,0,0,0,0,0,514,63,0,0,0
5,0,0,0,0,0,518,63,0,0,0
6,0,0,0,0,0,518,63,0,0,0
7,0,0,0,0,3,519,62,0,0,0
8,0,0,0,0,0,517,61,0,0,0
9,0,0,0,0,0,513,61,0,0,0
10,0,0,0,0,0,511,61,0,0,0
11,0,0,0,0,3,509,61,0,0,0
12,0,0,0,0,0,508,63,0,0,0
13,0,0,0,0,0,506,63,0,0,0
14,0,0,0,0,0,506,63,0,0,0
15,0,0,0,0,3,505,63,0,0,0
0,0,0,0,0,0,504,63,0,0,0
1,0,0,0,0,0,504,62,0,0,0
2,0,0,0,0,0,502,61,0,0,0
3,0,0,0,0,3,504,61,0,0,0
4,0,0,0,0,0,501,63,0,0,0
5,0,0,0,0,0,499,63,0,0,0
6,0,0,0,0,0,497,63,0,0,0
7,0,0,0,0,3,497,63,0,0,0
8,0,0,0,0,0,497,63,0,0,0
9,0,0,0,0,0,496,63,0,0,0
10,0,0,0,0,0,489,62,0,0,0
11,0,0,0,0,3,492,63,0,0,0
12,0,0,0,0,0,492,63,0,0,0
13,0,0,0,0,0,486,63,0,0,0
14,0,0,0,0,0,494,63,0,0,0
15,0,0,0,0,3,494,63,0,0,0
0,0,0,0,0,0,500,61,0,0,0
1,0,0,0,0,0,512,63,0,0,0
2,0,0,0,0,0,519,63,0,0,0
3,0,0,0,0,3,524,63,0,0,0
4,0,0,0,0,0,526,63,0,0,0
5,0,0,0,0,0,525,61,0,0,0
6,0,0,0,0,0,524,60,0,0,0
7,0,0,0,0,3,526,63,0,0,0
8,0,0,0,0,0,517,63,0,0,0
9,0,0,0,0,0,457,63,0,0,0
10,0,0,0,0,0,423,61,0,0,0
11,0,0,0,0,3,488,63,0,0,0
12,0,0,0,0,0,575,62,0,0,0
13,0,0,0,0,0,516,62,0,0,0
14,0,0,0,0,0,509,63,0,0,0
15,0,0,0,0,1,525,63,0,0,0
0,0,0,0,0,0,529,61,0,0,0
1,0,0,0,0,0,527,61,0,0,0
2,0,0,0,0,0,525,61,0,0,0
3,0,0,0,0,3,524,63,0,0,0
4,0,0,0,0,0,519,62,0,0,0
5,0,0,0,0,0,516,63,0,0,0
6,0,0,0,0,0,510,61,0,0,0
7,0,0,0,0,3,508,63,0,0,0
8,0,0,0,0,0,506,61,0,0,0
9,0,0,0,0,0,507,61,0,0,0
10,0,0,0,0,0,505,61,0,0,0
11,0,0,0,0,3,506,62,0,0,0
12,0,0,0,0,0,504,63,0,0,0
13,0,0,0,0,0,498,63,0,0,0
14,0,0,0,0,0,490,61,0,0,0
15,0,0,0,0,3,484,62,0,0,0
0,0,0,0,0,0,489,63,0,0,0
1,0,0,0,0,0,489,63,0,0,0
2,0,0,0,0,0,495,63,0,0,0
3,0,0,0,0,3,499,62,0,0,0
4,0,0,0,0,1,503,60,0,0,0
5,0,0,0,0,0,511,62,0,0,0
6,0,0,0,0,0,520,62,0,0,0
7,0,0,0,0,3,526,62,0,0,0
8,0,0,0,0,0,529,63,0,0,0
9,0,0,0,0,0,530,63,0,0,0
10,0,0,0,0,0,530,62,0,0,0
11,0,0,0,0,3,528,62,0,0,0
12,0,0,0,0,0,527,63,0,0,0
13,0,0,0,0,0,524,63,0,0,0
14,0,0,0,0,0,523,63,0,0,0
15,0,0,0,0,3,519,63,0,0,0
0,0,0,0,0,0,516,63,0,0,0
1,0,0,0,0,0,515,61,0,0,0
2,0,0,0,0,0,513,62,0,0,0
3,0,0,0,0,3,509,63,0,0,0
4,0,0,0,0,0,508,61,0,0,0
5,0,0,0,0,0,508,62,0,0,0
6,0,0,0,0,0,512,63,0,0,0
7,0,0,0,0,3,513,63,0,0,0
8,0,0,0,0,0,511,63,0,0,0
9,0,0,0,0,0,503,62,0,0,0
10,0,0,0,0,0,504,62,0,0,0
11,0,0,0,0,1,511,62,0,0,0
12,0,0,0,0,0,515,60,0,0,0
13,0,0,0,0,0,515,63,0,0,0
14,0,0,0,0,0,515,63,0,0,0
15,0,0,0,0,3,516,60,0,0,0
0,0,0,0,0,0,513,63,0,0,0
1,0,0,0,0,0,511,63,0,0,0
2,0,0,0,0,0,503,62,0,0,0
3,0,0,0,0,3,505,63,0,0,0
4,0,0,0,0,0,508,63,0,0,0
5,0,0,0,0,0,517,61,0,0,0
6,0,0,0,0,0,517,63,0,0,0
7,0,0,0,0,3,518,63,0,0,0
8,0,0,0,0,0,518,63,0,0,0
9,0,0,0,0,0,516,60,0,0,0
10,0,0,0,0,0,512,62,0,0,0
11,0,0,0,0,3,507,62,0,0,0
12,0,0,0,0,0,508,63,0,0,0
13,0,0,0,0,0,515,63,0,0,0
14,0,0,0,0,0,523,63,0,0,0
15,0,0,0,0,3,523,63,0,0,0
0,0,0,0,0,0,516,63,0,0,0
1,0,0,0,0,0,509,63,0,0,0
2,0,0,0,0,0,507,63,0,0,0
3,0,0,0,0,3,502,60,0,0,0
4,0,0,0,0,0,505,60,0,0,0
5,0,0,0,0,0,510,60,0,0,0
6,0,0,0,0,0,521,62,0,0,0
7,0,0,0,0,3,528,62,0,0,0
8,0,0,0,0,0,536,62,0,0,0
9,0,0,0,0,0,535,60,0,0,0
10,0,0,0,0,0,532,61,0,0,0
11,0,0,0,0,3,535,63,0,0,0
12,0,0,0,0,0,533,63,0,0,0
13,0,0,0,0,0,539,62,0,0,0
14,0,0,0,0,0,526,62,0,0,0
15,0,0,0,0,3,466,61,0,0,0
0,0,0,0,0,0,451,60,0,0,0
1,0,0,0,0,0,508,62,0,0,0
2,0,0,0,0,0,576,63,0,0,0
3,0,0,0,0,3,516,62,0,0,0
4,0,0,0,0,0,510,61,0,0,0
5,0,0,0,0,0,519,60,0,0,0
6,0,0,0,0,0,514,62,0,0,0
7,0,0,0,0,1,512,60,0,0,0
8,0,0,0,0,0,512,60,0,0,0
9,0,0,0,0,0,510,60,0,0,0
10,0,0,0,0,0,509,62,0,0,0
11,0,0,0,0,3,507,62,0,0,0
12,0,0,0,0,0,504,62,0,0,0
13,0,0,0,0,0,507,60,0,0,0
14,0,0,0,0,0,512,61,0,0,0
15,0,0,0,0,3,515,62,0,0,0
0,0,0,0,0,0,515,62,0,0,0
1,0,0,0,0,0,516,60,0,0,0
2,0,0,0,0,0,510,60,0,0,0
3,0,0,0,0,3,509,60,0,0,0
4,0,0,0,0,0,504,61,0,0,0
5,0,0,0,0,0,496,62,0,0,0
6,0,0,0,0,0,492,62,0,0,0
7,0,0,0,0,3,491,61,0,0,0
8,0,0,0,0,0,491,60,0,0,0
9,0,0,0,0,0,494,62,0,0,0
10,0,0,0,0,0,498,62,0,0,0
11,0,0,0,0,3,503,60,0,0,0
12,0,0,0,0,0,508,62,0,0,0
13,0,0,0,0,0,509,62,0,0,0
14,0,0,0,0,0,513,61,0,0,0
15,0,0,0,0,3,512,60,0,0,0
0,0,0,0,0,0,511,60,0,0,0
1,0,0,0,0,0,510,62,0,0,0
2,0,0,0,0,0,505,62,0,0,0
3,0,0,0,0,3,505,61,0,0,0
4,0,0,0,0,0,502,60,0,0,0
5,0,0,0,0,0,506,62,0,0,0
6,0,0,0,0,0,510,61,0,0,0
7,0,0,0,0,3,512,60,0,0,0
8,0,0,0,0,0,515,60,0,0,0
9,0,0,0,0,0,512,62,0,0,0
10,0,0,0,0,0,505,62,0,0,0
11,0,0,0,0,3,503,61,0,0,0
12,0,0,0,0,0,504,60,0,0,0
13,0,0,0,0,0,508,61,0,0,0
14,0,0,0,0,0,511,62,0,0,0
15,0,0,0,0,3,512,61,0,0,0
0,0,0,0,0,0,510,60,0,0,0
1,0,0,0,0,0,510,59,0,0,0
2,0,0,0,0,0,509,59,0,0,0
3,0,0,0,0,0,508,62,0,0,0
4,0,0,0,0,0,507,62,0,0,0
5,0,0,0,0,0,508,60,0,0,0
6,0,0,0,0,0,511,59,0,0,0
7,0,0,0,0,3,508,62,0,0,0
8,0,0,0,0,0,505,62,0,0,0
9,0,0,0,0,0,504,60,0,0,0
10,0,0,0,0,0,499,60,0,0,0
11,0,0,0,0,3,497,59,0,0,0
12,0,0,0,0,0,500,60,0,0,0
13,0,0,0,0,0,501,60,0,0,0
14,0,0,0,0,0,497,61,0,0,0
15,0,0,0,0,3,497,61,0,0,0
0,0,0,0,0,0,495,62,0,0,0
1,0,0,0,0,0,494,61,0,0,0
2,0,0,0,0,0,492,61,0,0,0
3,0,0,0,0,3,494,61,0,0,0
4,0,0,0,0,0,492,59,0,0,0
5,0,0,0,0,0,491,62,0,0,0
6,0,0,0,0,0,492,59,0,0,0
7,0,0,0,0,3,487,60,0,0,0
8,0,0,0,0,0,489,59,0,0,0
9,0,0,0,0,0,489,59,0,0,0
10,0,0,0,0,0,495,61,0,0,0
11,0,0,0,0,3,502,61,0,0,0
12,0,0,0,0,0,509,61,0,0,0
13,0,0,0,0,0,509,59,0,0,0
14,0,0,0,0,0,507,61,0,0,0
15,0,0,0,0,3,509,61,0,0,0
0,0,0,0,0,0,512,60,0,0,0
1,0,0,0,0,0,521,59,0,0,0
2,0,0,0,0,0,499,60,0,0,0
3,0,0,0,0,3,438,61,0,0,0
4,0,0,0,0,0,436,61,0,0,0
5,0,0,0,0,0,515,59,0,0,0
6,0,0,0,0,0,570,59,0,0,0
7,0,0,0,0,3,509,61,0,0,0
8,0,0,0,0,0,516,61,0,0,0
9,0,0,0,0,0,522,61,0,0,0
10,0,0,0,0,0,525,62,0,0,0
11,0,0,0,0,3,516,61,0,0,0
12,0,0,0,0,0,508,61,0,0,0
13,0,0,0,0,0,506,60,0,0,0
14,0,0,0,0,0,506,59,0,0,0
15,0,0,0,0,0,503,59,0,0,0
0,0,0,0,0,0,504,60,0,0,0
1,0,0,0,0,0,500,61,0,0,0
2,0,0,0,0,0,500,61,0,0,0
3,0,0,0,0,3,500,60,0,0,0
4,0,0,0,0,0,502,58,0,0,0
5,0,0,0,0,0,503,61,0,0,0
6,0,0,0,0,0,504,60,0,0,0
7,0,0,0,0,3,501,60,0,0,0
8,0,0,0,0,0,491,60,0,0,0
9,0,0,0,0,0,488,61,0,0,0
10,0,0,0,0,0,492,59,0,0,0
11,0,0,0,0,3,492,59,0,0,0
12,0,0,0,0,0,496,61,0,0,0
13,0,0,0,0,0,503,59,0,0,0
14,0,0,0,0,0,510,60,0,0,0
15,0,0,0,0,3,519,60,0,0,0
0,0,0,0,0,0,526,58,0,0,0
1,0,0,0,0,0,531,60,0,0,0
2,0,0,0,0,0,536,61,0,0,0
3,0,0,0,0,0,534,61,0,0,0
4,0,0,0,0,0,531,60,0,0,0
5,0,0,0,0,0,527,58,0,0,0
6,0,0,0,0,0,526,60,0,0,0
7,0,0,0,0,3,520,60,0,0,0
8,0,0,0,0,0,515,59,0,0,0
9,0,0,0,0,0,518,60,0,0,0
10,0,0,0,0,0,519,61,0,0,0
11,0,0,0,0,3,518,60,0,0,0
12,0,0,0,0,0,511,58,0,0,0
13,0,0,0,0,0,507,59,0,0,0
14,0,0,0,0,0,506,60,0,0,0
15,0,0,0,0,3,508,61,0,0,0
0,0,0,0,0,0,517,60,0,0,0
1,0,0,0,0,0,520,59,0,0,0
2,0,0,0,0,0,525,59,0,0,0
3,0,0,0,0,3,524,60,0,0,0
4,0,0,0,0,0,527,61,0,0,0
5,0,0,0,0,0,522,61,0,0,0
6,0,0,0,0,0,524,60,0,0,0
7,0,0,0,0,3,526,61,0,0,0
8,0,0,0,0,0,528,58,0,0,0
9,0,0,0,0,0,524,61,0,0,0
10,0,0,0,0,0,520,58,0,0,0
11,0,0,0,0,3,516,61,0,0,0
12,0,0,0,0,0,516,59,0,0,0
13,0,0,0,0,0,516,60,0,0,0
14,0,0,0,0,0,515,61,0,0,0
15,0,0,0,0,3,511,59,0,0,0
0,0,0,0,0,0,513,58,0,0,0
1,0,0,0,0,0,513,59,0,0,0
2,0,0,0,0,0,517,58,0,0,0
3,0,0,0,0,3,517,60,0,0,0
4,0,0,0,0,0,516,60,0,0,0
5,0,0,0,0,0,514,61,0,0,0
6,0,0,0,0,0,513,61,0,0,0
7,0,0,0,0,3,510,61,0,0,0
8,0,0,0,0,0,507,60,0,0,0
9,0,0,0,0,0,500,60,0,0,0
10,0,0,0,0,0,500,58,0,0,0
11,0,0,0,0,3,498,60,0,0,0
12,0,0,0,0,0,495,61,0,0,0
13,0,0,0,0,0,498,60,0,0,0
14,0,0,0,0,0,500,59,0,0,0
15,0,0,0,0,0,508,61,0,0,0
0,0,0,0,0,0,517,61,0,0,0
1,0,0,0,0,0,521,58,0,0,0
2,0,0,0,0,0,521,60,0,0,0
3,0,0,0,0,3,515,61,0,0,0
4,0,0,0,0,0,517,61,0,0,0
5,0,0,0,0,0,522,61,0,0,0
6,0,0,0,0,0,529,61,0,0,0
7,0,0,0,0,3,507,61,0,0,0
8,0,0,0,0,0,434,61,0,0,0
9,0,0,0,0,0,441,61,0,0,0
10,0,0,0,0,0,541,61,0,0,0
11,0,0,0,0,3,570,60,0,0,0
12,0,0,0,0,0,505,59,0,0,0
13,0,0,0,0,0,513,59,0,0,0
14,0,0,0,0,0,522,59,0,0,0
15,0,0,0,0,3,523,59,0,0,0
0,0,0,0,0,0,522,60,0,0,0
1,0,0,0,0,0,521,60,0,0,0
2,0,0,0,0,0,519,59,0,0,0
3,0,0,0,0,3,517,59,0,0,0
4,0,0,0,0,0,515,59,0,0,0
5,0,0,0,0,0,518,59,0,0,0
6,0,0,0,0,0,516,60,0,0,0
7,0,0,0,0,3,516,61,0,0,0
8,0,0,0,0,0,513,61,0,0,0
9,0,0,0,0,0,516,60,0,0,0
10,0,0,0,0,0,516,59,0,0,0
11,0,0,0,0,3,511,59,0,0,0
12,0,0,0,0,0,502,59,0,0,0
13,0,0,0,0,0,494,61,0,0,0
14,0,0,0,0,0,491,61,0,0,0
15,0,0,0,0,3,487,60,0,0,0
0,0,0,0,0,0,484,61,0,0,0
1,0,0,0,0,0,486,61,0,0,0
2,0,0,0,0,0,492,61,0,0,0
3,0,0,0,0,3,500,61,0,0,0
4,0,0,0,0,0,511,61,0,0,0
5,0,0,0,0,0,515,61,0,0,0
6,0,0,0,0,0,520,61,0,0,0
7,0,0,0,0,3,519,62,0,0,0
8,0,0,0,0,0,522,60,0,0,0
9,0,0,0,0,0,519,59,0,0,0
10,0,0,0,0,0,519,60,0,0,0
11,0,0,0,0,1,513,61,0,0,0
12,0,0,0,0,0,513,62,0,0,0
13,0,0,0,0,0,512,61,0,0,0
14,0,0,0,0,0,507,61,0,0,0
15,0,0,0,0,3,502,59,0,0,0
0,0,0,0,0,0,502,59,0,0,0
1,0,0,0,0,0,502,61,0,0,0
2,0,0,0,0,0,503,61,0,0,0
3,0,0,0,0,3,504,61,0,0,0
4,0,0,0,0,0,506,59,0,0,0
5,0,0,0,0,0,506,60,0,0,0
6,0,0,0,0,0,515,62,0,0,0
7,0,0,0,0,3,522,61,0,0,0
8,0,0,0,0,0,525,60,0,0,0
9,0,0,0,0,0,522,59,0,0,0
10,0,0,0,0,0,516,59,0,0,0
11,0,0,0,0,3,515,59,0,0,0
12,0,0,0,0,0,510,60,0,0,0
13,0,0,0,0,0,504,59,0,0,0
14,0,0,0,0,0,502,60,0,0,0
15,0,0,0,0,3,498,59,0,0,0
0,0,0,0,0,0,495,59,0,0,0
1,0,0,0,0,0,495,59,0,0,0
2,0,0,0,0,0,500,59,0,0,0
3,0,0,0,0,3,504,60,0,0,0
4,0,0,0,0,0,508,62,0,0,0
5,0,0,0,0,0,512,60,0,0,0
6,0,0,0,0,0,512,59,0,0,0
7,0,0,0,0,3,512,60,0,0,0
8,0,0,0,0,0,511,62,0,0,0
9,0,0,0,0,0,512,62,0,0,0
10,0,0,0,0,0,516,61,0,0,0
11,0,0,0,0,3,511,60,0,0,0
12,0,0,0,0,0,512,59,0,0,0
13,0,0,0,0,0,507,59,0,0,0
14,0,0,0,0,0,497,61,0,0,0
15,0,0,0,0,3,498,61,0,0,0
0,0,0,0,0,0,504,61,0,0,0
1,0,0,0,0,0,508,62,0,0,0
2,0,0,0,0,0,518,61,0,0,0
3,0,0,0,0,3,527,62,0,0,0
4,0,0,0,0,0,526,62,0,0,0
5,0,0,0,0,0,522,62,0,0,0
6,0,0,0,0,0,521,61,0,0,0
7,0,0,0,0,0,519,59,0,0,0
8,0,0,0,0,0,522,59,0,0,0
9,0,0,0,0,0,519,62,0,0,0
10,0,0,0,0,0,492,62,0,0,0
11,0,0,0,0,3,439,59,0,0,0
12,0,0,0,0,0,473,59,0,0,0
13,0,0,0,0,0,559,60,0,0,0
14,0,0,0,0,0,548,60,0,0,0
15,0,0,0,0,3,502,62,0,0,0
0,0,0,0,0,0,515,62,0,0,0
1,0,0,0,0,0,517,62,0,0,0
2,0,0,0,0,0,515,61,0,0,0
3,0,0,0,0,3,514,60,0,0,0
4,0,0,0,0,0,516,60,0,0,0
5,0,0,0,0,0,515,62,0,0,0
6,0,0,0,0,0,515,62,0,0,0
7,0,0,0,0,3,516,60,0,0,0
8,0,0,0,0,0,515,62,0,0,0
9,0,0,0,0,0,511,61,0,0,0
10,0,0,0,0,0,511,60,0,0,0
11,0,0,0,0,3,506,62,0,0,0
12,0,0,0,0,0,503,61,0,0,0
13,0,0,0,0,0,502,60,0,0,0
14,0,0,0,0,0,500,62,0,0,0
15,0,0,0,0,3,498,60,0,0,0
0,0,0,0,0,0,499,62,0,0,0
1,0,0,0,0,0,494,60,0,0,0
2,0,0,0,0,0,491,60,0,0,0
3,0,0,0,0,3,494,60,0,0,0
4,0,0,0,0,0,498,61,0,0,0
5,0,0,0,0,0,504,62,0,0,0
6,0,0,0,0,0,513,62,0,0,0
7,0,0,0,0,3,513,62,0,0,0
8,0,0,0,0,0,515,62,0,0,0
9,0,0,0,0,0,502,62,0,0,0
10,0,0,0,0,0,513,61,0,0,0
11,0,0,0,0,3,553,61,0,0,0
12,0,0,0,0,0,547,62,0,0,0
13,0,0,0,0,0,537,61,0,0,0
14,0,0,0,0,0,531,61,0,0,0
15,0,0,0,0,3,521,62,0,0,0
0,0,0,0,0,0,518,62,0,0,0
1,0,0,0,0,0,516,62,0,0,0
2,0,0,0,0,0,515,62,0,0,0
3,0,0,0,0,1,508,61,0,0,0
4,0,0,0,0,1,506,60,0,0,0
5,0,0,0,0,0,505,62,0,0,0
6,0,0,0,0,0,506,62,0,0,0
7,0,0,0,0,3,506,62,0,0,0
8,0,0,0,0,0,506,62,0,0,0
9,0,0,0,0,0,502,62,0,0,0
10,0,0,0,0,0,498,63,0,0,0
11,0,0,0,0,3,492,62,0,0,0
12,0,0,0,0,0,492,61,0,0,0
13,0,0,0,0,0,494,61,0,0,0
14,0,0,0,0,0,492,61,0,0,0
15,0,0,0,0,3,490,61,0,0,0
0,0,0,0,0,0,492,61,0,0,0
1,0,0,0,0,0,491,60,0,0,0
2,0,0,0,0,0,502,61,0,0,0
3,0,0,0,0,3,508,62,0,0,0
4,0,0,0,0,0,514,62,0,0,0
5,0,0,0,0,0,513,61,0,0,0
6,0,0,0,0,0,515,61,0,0,0
7,0,0,0,0,3,513,60,0,0,0
8,0,0,0,0,1,508,60,0,0,0
9,0,0,0,0,0,512,60,0,0,0
10,0,0,0,0,0,514,61,0,0,0
11,0,0,0,0,3,515,63,0,0,0
12,0,0,0,0,0,522,62,0,0,0
13,0,0,0,0,0,528,61,0,0,0
14,0,0,0,0,0,525,63,0,0,0
15,0,0,0,0,3,529,63,0,0,0
0,0,0,0,0,0,521,62,0,0,0
1,0,0,0,0,0,519,63,0,0,0
2,0,0,0,0,0,521,63,0,0,0
3,0,0,0,0,3,525,61,0,0,0
4,0,0,0,0,0,521,60,0,0,0
5,0,0,0,0,0,467,60,0,0,0
6,0,0,0,0,0,467,61,0,0,0
7,0,0,0,0,3,527,62,0,0,0
8,0,0,0,0,0,584,62,0,0,0
9,0,0,0,0,0,521,63,0,0,0
10,0,0,0,0,0,507,61,0,0,0
11,0,0,0,0,3,512,62,0,0,0
12,0,0,0,0,0,513,62,0,0,0
13,0,0,0,0,0,513,62,0,0,0
14,0,0,0,0,0,512,63,0,0,0
15,0,0,0,0,1,515,62,0,0,0
0,0,0,0,0,0,520,63,0,0,0
1,0,0,0,0,0,524,63,0,0,0
2,0,0,0,0,0,526,62,0,0,0
3,0,0,0,0,3,524,61,0,0,0
4,0,0,0,0,0,519,60,0,0,0
5,0,0,0,0,0,514,60,0,0,0
6,0,0,0,0,0,508,60,0,0,0
7,0,0,0,0,3,505,62,0,0,0
8,0,0,0,0,0,499,62,0,0,0
9,0,0,0,0,0,496,63,0,0,0
10,0,0,0,0,0,489,62,0,0,0
11,0,0,0,0,3,486,60,0,0,0
12,0,0,0,0,0,487,60,0,0,0
13,0,0,0,0,0,485,60,0,0,0
14,0,0,0,0,0,487,61,0,0,0
15,0,0,0,0,3,491,62,0,0,0
0,0,0,0,0,0,499,60,0,0,0
1,0,0,0,0,0,505,60,0,0,0
2,0,0,0,0,0,513,62,0,0,0
3,0,0,0,0,3,517,62,0,0,0
4,0,0,0,0,0,520,62,0,0,0
5,0,0,0,0,0,519,62,0,0,0
6,0,0,0,0,0,521,62,0,0,0
7,0,0,0,0,3,520,61,0,0,0
8,0,0,0,0,0,518,60,0,0,0
9,0,0,0,0,0,518,62,0,0,0
10,0,0,0,0,0,518,61,0,0,0
11,0,0,0,0,3,519,60,0,0,0
12,0,0,0,0,0,517,61,0,0,0
13,0,0,0,0,0,515,63,0,0,0
14,0,0,0,0,0,515,63,0,0,0
15,0,0,0,0,3,515,62,0,0,0
0,0,0,0,0,0,511,61,0,0,0
1,0,0,0,0,0,505,61,0,0,0
2,0,0,0,0,0,502,63,0,0,0
3,0,0,0,0,3,500,63,0,0,0
4,0,0,0,0,0,501,62,0,0,0
5,0,0,0,0,0,501,61,0,0,0
6,0,0,0,0,0,503,60,0,0,0
7,0,0,0,0,3,506,62,0,0,0
8,0,0,0,0,0,509,63,0,0,0
9,0,0,0,0,0,508,63,0,0,0
10,0,0,0,0,0,507,61,0,0,0
11,0,0,0,0,1,506,61,0,0,0
12,0,0,0,0,0,506,63,0,0,0
13,0,0,0,0,0,505,63,0,0,0
14,0,0,0,0,0,504,62,0,0,0
15,0,0,0,0,3,505,63,0,0,0
0,0,0,0,0,0,502,63,0,0,0
1,0,0,0,0,0,510,63,0,0,0
2,0,0,0,0,0,510,62,0,0,0
3,0,0,0,0,3,520,61,0,0,0
4,0,0,0,0,0,532,60,0,0,0
5,0,0,0,0,0,534,60,0,0,0
6,0,0,0,0,0,528,60,0,0,0
7,0,0,0,0,3,524,60,0,0,0
8,0,0,0,0,0,522,61,0,0,0
9,0,0,0,0,0,521,60,0,0,0
10,0,0,0,0,0,524,60,0,0,0
11,0,0,0,0,3,517,61,0,0,0
12,0,0,0,0,0,471,63,0,0,0
13,0,0,0,0,0,443,62,0,0,0
14,0,0,0,0,0,492,62,0,0,0
15,0,0,0,0,0,568,61,0,0,0
0,0,0,0,0,0,516,60,0,0,0
1,0,0,0,0,0,499,60,0,0,0
2,0,0,0,0,0,514,62,0,0,0
3,0,0,0,0,3,518,62,0,0,0
4,0,0,0,0,0,518,60,0,0,0
5,0,0,0,0,0,519,63,0,0,0
6,0,0,0,0,0,511,60,0,0,0
7,0,0,0,0,3,509,61,0,0,0
8,0,0,0,0,0,511,62,0,0,0
9,0,0,0,0,0,512,60,0,0,0
10,0,0,0,0,0,514,60,0,0,0
11,0,0,0,0,3,512,60,0,0,0
12,0,0,0,0,0,512,62,0,0,0
13,0,0,0,0,0,511,63,0,0,0
14,0,0,0,0,0,509,63,0,0,0
15,0,0,0,0,3,506,63,0,0,0
0,0,0,0,0,0,502,61,0,0,0
1,0,0,0,0,0,497,60,0,0,0
2,0,0,0,0,0,498,61,0,0,0
3,0,0,0,0,3,496,61,0,0,0
4,0,0,0,0,0,499,62,0,0,0
5,0,0,0,0,0,500,62,0,0,0
6,0,0,0,0,0,504,63,0,0,0
7,0,0,0,0,3,512,63,0,0,0
8,0,0,0,0,0,520,62,0,0,0
9,0,0,0,0,0,529,60,0,0,0
10,0,0,0,0,0,536,62,0,0,0
11,0,0,0,0,3,537,62,0,0,0
12,0,0,0,0,0,534,60,0,0,0
13,0,0,0,0,0,532,63,0,0,0
14,0,0,0,0,0,530,63,0,0,0
15,0,0,0,0,3,527,63,0,0,0
0,0,0,0,0,0,523,63,0,0,0
1,0,0,0,0,0,520,63,0,0,0
2,0,0,0,0,0,521,62,0,0,0
3,0,0,0,0,3,522,60,0,0,0
4,0,0,0,0,0,520,62,0,0,0
5,0,0,0,0,0,513,61,0,0,0
6,0,0,0,0,0,513,61,0,0,0
7,0,0,0,0,3,513,63,0,0,0
8,0,0,0,0,0,511,60,0,0,0
9,0,0,0,0,0,508,61,0,0,0
10,0,0,0,0,0,508,62,0,0,0
11,0,0,0,0,1,509,63,0,0,0
12,0,0,0,0,0,508,63,0,0,0
13,0,0,0,0,0,508,62,0,0,0
14,0,0,0,0,0,505,63,0,0,0
15,0,0,0,0,3,504,63,0,0,0
0,0,0,0,0,0,507,63,0,0,0
1,0,0,0,0,0,507,61,0,0,0
2,0,0,0,0,0,506,62,0,0,0
3,0,0,0,0,3,505,63,0,0,0
4,0,0,0,0,0,505,63,0,0,0
5,0,0,0,0,0,504,61,0,0,0
6,0,0,0,0,0,504,61,0,0,0
7,0,0,0,0,3,500,62,0,0,0
8,0,0,0,0,0,495,61,0,0,0
9,0,0,0,0,0,495,63,0,0,0
10,0,0,0,0,0,490,63,0,0,0
11,0,0,0,0,3,489,60,0,0,0
12,0,0,0,0,0,496,63,0,0,0
13,0,0,0,0,0,498,62,0,0,0
14,0,0,0,0,0,508,62,0,0,0
15,0,0,0,0,3,515,61,0,0,0
0,0,0,0,0,0,518,60,0,0,0
1,0,0,0,0,0,518,63,0,0,0
2,0,0,0,0,0,517,63,0,0,0
3,0,0,0,0,3,519,62,0,0,0
4,0,0,0,0,0,519,62,0,0,0
5,0,0,0,0,0,523,60,0,0,0
6,0,0,0,0,0,501,62,0,0,0
7,0,0,0,0,3,441,63,0,0,0
8,0,0,0,0,0,451,61,0,0,0
9,0,0,0,0,0,530,62,0,0,0
10,0,0,0,0,0,554,63,0,0,0
11,0,0,0,0,3,502,63,0,0,0
12,0,0,0,0,0,516,61,0,0,0
13,0,0,0,0,0,522,63,0,0,0
14,0,0,0,0,0,524,63,0,0,0
15,0,0,0,0,3,522,61,0,0,0
0,0,0,0,0,0,521,61,0,0,0
1,0,0,0,0,0,520,63,0,0,0
2,0,0,0,0,0,521,63,0,0,0
3,0,0,0,0,3,520,63,0,0,0
4,0,0,0,0,0,520,63,0,0,0
5,0,0,0,0,0,518,63,0,0,0
6,0,0,0,0,0,514,63,0,0,0
7,0,0,0,0,1,509,63,0,0,0
8,0,0,0,0,0,506,63,0,0,0
9,0,0,0,0,0,505,63,0,0,0
10,0,0,0,0,0,504,63,0,0,0
11,0,0,0,0,3,500,62,0,0,0
12,0,0,0,0,0,496,61,0,0,0
13,0,0,0,0,0,497,61,0,0,0
14,0,0,0,0,0,497,61,0,0,0
15,0,0,0,0,3,494,61,0,0,0
0,0,0,0,0,0,494,61,0,0,0
1,0,0,0,0,0,499,62,0,0,0
2,0,0,0,0,0,507,63,0,0,0
3,0,0,0,0,3,514,63,0,0,0
4,0,0,0,0,0,523,63,0,0,0
5,0,0,0,0,0,530,63,0,0,0
6,0,0,0,0,0,531,63,0,0,0
7,0,0,0,0,3,531,63,0,0,0
8,0,0,0,0,0,532,63,0,0,0
9,0,0,0,0,0,530,63,0,0,0
10,0,0,0,0,0,526,63,0,0,0
11,0,0,0,0,3,523,63,0,0,0
12,0,0,0,0,0,522,63,0,0,0
13,0,0,0,0,0,517,63,0,0,0
14,0,0,0,0,0,517,61,0,0,0
15,0,0,0,0,3,513,62,0,0,0
0,0,0,0,0,1,510,63,0,0,0
1,0,0,0,0,0,510,63,0,0,0
2,0,0,0,0,0,511,62,0,0,0
3,0,0,0,0,3,514,61,0,0,0
4,0,0,0,0,0,513,63,0,0,0
5,0,0,0,0,0,513,62,0,0,0
6,0,0,0,0,0,513,62,0,0,0
7,0,0,0,0,3,513,61,0,0,0
8,0,0,0,0,0,514,60,0,0,0
9,0,0,0,0,0,512,60,0,0,0
10,0,0,0,0,0,511,61,0,0,0
11,0,0,0,0,3,513,63,0,0,0
12,0,0,0,0,0,514,63,0,0,0
13,0,0,0,0,0,514,63,0,0,0
14,0,0,0,0,0,516,63,0,0,0
15,0,0,0,0,3,513,62,0,0,0
0,0,0,0,0,0,512,62,0,0,0
1,0,0,0,0,0,510,61,0,0,0
2,0,0,0,0,1,510,61,0,0,0
3,0,0,0,0,1,507,61,0,0,0
4,0,0,0,0,0,508,62,0,0,0
5,0,0,0,0,0,510,63,0,0,0
6,0,0,0,0,0,508,63,0,0,0
7,0,0,0,0,3,506,61,0,0,0
8,0,0,0,0,0,509,60,0,0,0
9,0,0,0,0,0,505,60,0,0,0
10,0,0,0,0,0,499,62,0,0,0
11,0,0,0,0,3,496,63,0,0,0
12,0,0,0,0,0,498,63,0,0,0
13,0,0,0,0,0,506,62,0,0,0
14,0,0,0,0,1,514,63,0,0,0
15,0,0,0,0,3,520,63,0,0,0
0,0,0,0,0,0,519,63,0,0,0
1,0,0,0,0,0,518,61,0,0,0
2,0,0,0,0,0,520,61,0,0,0
3,0,0,0,0,3,522,61,0,0,0
4,0,0,0,0,0,527,61,0,0,0
5,0,0,0,0,0,521,60,0,0,0
6,0,0,0,0,0,468,61,0,0,0
7,0,0,0,0,3,430,60,0,0,0
8,0,0,0,0,0,490,62,0,0,0
9,0,0,0,0,0,571,62,0,0,0
10,0,0,0,0,1,520,62,0,0,0
11,0,0,0,0,3,509,61,0,0,0
12,0,0,0,0,0,523,60,0,0,0
13,0,0,0,0,0,525,61,0,0,0
14,0,0,0,0,0,524,60,0,0,0
15,0,0,0,0,3,524,62,0,0,0
0,0,0,0,0,0,520,61,0,0,0
1,0,0,0,0,0,514,60,0,0,0
2,0,0,0,0,0,515,62,0,0,0
3,0,0,0,0,3,516,61,0,0,0
4,0,0,0,0,0,518,60,0,0,0
5,0,0,0,0,0,513,62,0,0,0
6,0,0,0,0,0,514,63,0,0,0
7,0,0,0,0,3,512,62,0,0,0
8,0,0,0,0,0,510,62,0,0,0
9,0,0,0,0,0,505,62,0,0,0
10,0,0,0,0,0,499,63,0,0,0
11,0,0,0,0,3,494,62,0,0,0
12,0,0,0,0,0,492,62,0,0,0
13,0,0,0,0,0,489,62,0,0,0
14,0,0,0,0,0,490,62,0,0,0
15,0,0,0,0,0,492,61,0,0,0
0,0,0,0,0,0,495,60,0,0,0
1,0,0,0,0,0,502,61,0,0,0
2,0,0,0,0,0,509,62,0,0,0
3,0,0,0,0,3,515,62,0,0,0
4,0,0,0,0,0,523,60,0,0,0
5,0,0,0,0,0,525,60,0,0,0
6,0,0,0,0,0,527,61,0,0,0
7,0,0,0,0,3,529,60,0,0,0
8,0,0,0,0,0,528,59,0,0,0
9,0,0,0,0,0,529,59,0,0,0
10,0,0,0,0,0,529,59,0,0,0
11,0,0,0,0,3,524,60,0,0,0
12,0,0,0,0,0,523,62,0,0,0
13,0,0,0,0,0,516,61,0,0,0
14,0,0,0,0,0,515,60,0,0,0
15,0,0,0,0,3,512,60,0,0,0
0,0,0,0,0,0,510,60,0,0,0
1,0,0,0,0,0,507,61,0,0,0
2,0,0,0,0,0,505,61,0,0,0
3,0,0,0,0,3,505,59,0,0,0
4,0,0,0,0,0,508,61,0,0,0
5,0,0,0,0,0,512,61,0,0,0
6,0,0,0,0,0,512,60,0,0,0
7,0,0,0,0,3,509,61,0,0,0
8,0,0,0,0,0,509,62,0,0,0
9,0,0,0,0,0,509,62,0,0,0
10,0,0,0,0,1,512,61,0,0,0
11,0,0,0,0,3,510,61,0,0,0
12,0,0,0,0,0,512,59,0,0,0
13,0,0,0,0,0,508,60,0,0,0
14,0,0,0,0,0,508,61,0,0,0
15,0,0,0,0,3,507,61,0,0,0
0,0,0,0,0,0,510,62,0,0,0
1,0,0,0,0,0,512,61,0,0,0
2,0,0,0,0,0,513,62,0,0,0
3,0,0,0,0,3,514,62,0,0,0
4,0,0,0,0,0,510,61,0,0,0
5,0,0,0,0,0,510,60,0,0,0
6,0,0,0,0,1,510,59,0,0,0
7,0,0,0,0,3,515,60,0,0,0
8,0,0,0,0,0,515,61,0,0,0
9,0,0,0,0,0,511,62,0,0,0
10,0,0,0,0,0,506,62,0,0,0
11,0,0,0,0,1,506,62,0,0,0
12,0,0,0,0,0,501,62,0,0,0
13,0,0,0,0,0,501,61,0,0,0
14,0,0,0,0,0,504,62,0,0,0
15,0,0,0,0,3,503,61,0,0,0
0,0,0,0,0,0,515,59,0,0,0
1,0,0,0,0,0,521,59,0,0,0
2,0,0,0,0,0,524,59,0,0,0
3,0,0,0,0,3,520,59,0,0,0
4,0,0,0,0,0,518,60,0,0,0
5,0,0,0,0,0,514,59,0,0,0
6,0,0,0,0,0,514,59,0,0,0
7,0,0,0,0,3,515,61,0,0,0
8,0,0,0,0,1,507,61,0,0,0
9,0,0,0,0,0,445,60,0,0,0
10,0,0,0,0,0,423,60,0,0,0
11,0,0,0,0,3,485,59,0,0,0
12,0,0,0,0,0,566,59,0,0,0
13,0,0,0,0,0,506,59,0,0,0
14,0,0,0,0,0,495,61,0,0,0
15,0,0,0,0,3,508,60,0,0,0
0,0,0,0,0,0,512,61,0,0,0
1,0,0,0,0,0,510,61,0,0,0
2,0,0,0,0,0,511,60,0,0,0
3,0,0,0,0,3,512,58,0,0,0
4,0,0,0,0,1,511,59,0,0,0
5,0,0,0,0,0,508,59,0,0,0
6,0,0,0,0,0,506,60,0,0,0
7,0,0,0,0,3,506,59,0,0,0
8,0,0,0,0,0,510,60,0,0,0
9,0,0,0,0,0,510,60,0,0,0
10,0,0,0,0,0,509,59,0,0,0
11,0,0,0,0,3,507,61,0,0,0
12,0,0,0,0,0,500,61,0,0,0
13,0,0,0,0,0,497,60,0,0,0
14,0,0,0,0,0,496,61,0,0,0
15,0,0,0,0,3,496,61,0,0,0
0,0,0,0,0,0,499,60,0,0,0
1,0,0,0,0,0,499,60,0,0,0
2,0,0,0,0,0,499,60,0,0,0
3,0,0,0,0,3,504,58,0,0,0
4,0,0,0,0,0,512,59,0,0,0
5,0,0,0,0,0,519,61,0,0,0
6,0,0,0,0,1,524,60,0,0,0
7,0,0,0,0,0,528,60,0,0,0
8,0,0,0,0,0,528,59,0,0,0
9,0,0,0,0,0,527,60,0,0,0
10,0,0,0,0,0,525,60,0,0,0
11,0,0,0,0,3,525,60,0,0,0
12,0,0,0,0,0,525,60,0,0,0
13,0,0,0,0,0,524,60,0,0,0
14,0,0,0,0,0,520,59,0,0,0
15,0,0,0,0,3,518,58,0,0,0
0,0,0,0,0,0,518,60,0,0,0
1,0,0,0,0,0,517,60,0,0,0
2,0,0,0,0,1,515,60,0,0,0
3,0,0,0,0,3,512,58,0,0,0
4,0,0,0,0,0,512,59,0,0,0
5,0,0,0,0,0,511,60,0,0,0
6,0,0,0,0,0,508,60,0,0,0
7,0,0,0,0,3,504,60,0,0,0
8,0,0,0,0,0,503,57,0,0,0
9,0,0,0,0,0,502,60,0,0,0
10,0,0,0,0,0,507,59,0,0,0
11,0,0,0,0,0,510,58,0,0,0
12,0,0,0,0,0,511,57,0,0,0
13,0,0,0,0,0,515,59,0,0,0
14,0,0,0,0,0,518,60,0,0,0
15,0,0,0,0,3,518,60,0,0,0
0,0,0,0,0,0,515,57,0,0,0
1,0,0,0,0,0,512,58,0,0,0
2,0,0,0,0,0,510,58,0,0,0
3,0,0,0,0,3,508,58,0,0,0
4,0,0,0,0,1,507,59,0,0,0
5,0,0,0,0,0,508,59,0,0,0
6,0,0,0,0,0,512,59,0,0,0
7,0,0,0,0,3,510,57,0,0,0
8,0,0,0,0,0,507,58,0,0,0
9,0,0,0,0,0,502,59,0,0,0
10,0,0,0,0,0,499,60,0,0,0
11,0,0,0,0,3,490,59,0,0,0
12,0,0,0,0,0,494,59,0,0,0
13,0,0,0,0,0,498,59,0,0,0
14,0,0,0,0,0,499,58,0,0,0
15,0,0,0,0,3,508,57,0,0,0
0,0,0,0,0,1,515,57,0,0,0
1,0,0,0,0,0,513,58,0,0,0
2,0,0,0,0,0,515,60,0,0,0
3,0,0,0,0,3,515,60,0,0,0
4,0,0,0,0,0,518,59,0,0,0
5,0,0,0,0,0,520,57,0,0,0
6,0,0,0,0,1,520,58,0,0,0
7,0,0,0,0,3,505,59,0,0,0
8,0,0,0,0,0,442,59,0,0,0
9,0,0,0,0,0,440,59,0,0,0
10,0,0,0,0,0,506,59,0,0,0
11,0,0,0,0,3,556,59,0,0,0
12,0,0,0,0,0,499,57,0,0,0
13,0,0,0,0,0,504,57,0,0,0
14,0,0,0,0,0,514,57,0,0,0
15,0,0,0,0,3,512,57,0,0,0
0,0,0,0,0,0,511,57,0,0,0
1,0,0,0,0,0,510,57,0,0,0
2,0,0,0,0,1,512,58,0,0,0
3,0,0,0,0,3,512,57,0,0,0
4,0,0,0,0,0,511,56,0,0,0
5,0,0,0,0,0,510,57,0,0,0
6,0,0,0,0,0,508,59,0,0,0
7,0,0,0,0,0,508,59,0,0,0
8,0,0,0,0,0,508,58,0,0,0
9,0,0,0,0,0,505,56,0,0,0
10,0,0,0,0,0,502,58,0,0,0
11,0,0,0,0,3,496,59,0,0,0
12,0,0,0,0,0,487,59,0,0,0
13,0,0,0,0,0,485,59,0,0,0
14,0,0,0,0,1,483,56,0,0,0
15,0,0,0,0,3,483,57,0,0,0
0,0,0,0,0,0,486,59,0,0,0
1,0,0,0,0,0,491,59,0,0,0
2,0,0,0,0,0,497,59,0,0,0
3,0,0,0,0,3,506,57,0,0,0
4,0,0,0,0,0,513,57,0,0,0
5,0,0,0,0,0,513,57,0,0,0
6,0,0,0,0,0,515,56,0,0,0
7,0,0,0,0,3,522,57,0,0,0
8,0,0,0,0,0,527,59,0,0,0
9,0,0,0,0,0,531,59,0,0,0
10,0,0,0,0,0,535,58,0,0,0
11,0,0,0,0,3,536,58,0,0,0
12,0,0,0,0,0,531,58,0,0,0
13,0,0,0,0,0,523,58,0,0,0
14,0,0,0,0,0,520,58,0,0,0
15,0,0,0,0,3,521,59,0,0,0
0,0,0,0,0,1,516,57,0,0,0
1,0,0,0,0,0,516,56,0,0,0
2,0,0,0,0,0,519,56,0,0,0
3,0,0,0,0,3,521,57,0,0,0
4,0,0,0,0,0,523,59,0,0,0
5,0,0,0,0,0,526,58,0,0,0
6,0,0,0,0,0,529,59,0,0,0
7,0,0,0,0,3,530,56,0,0,0
8,0,0,0,0,0,528,59,0,0,0
9,0,0,0,0,0,526,59,0,0,0
10,0,0,0,0,0,527,58,0,0,0
11,0,0,0,0,3,525,58,0,0,0
12,0,0,0,0,1,524,59,0,0,0
13,0,0,0,0,0,524,58,0,0,0
14,0,0,0,0,0,515,58,0,0,0
15,0,0,0,0,3,511,57,0,0,0
0,0,0,0,0,0,508,56,0,0,0
1,0,0,0,0,0,507,56,0,0,0
2,0,0,0,0,0,507,56,0,0,0
3,0,0,0,0,1,507,57,0,0,0
4,0,0,0,0,0,509,56,0,0,0
5,0,0,0,0,0,506,58,0,0,0
6,0,0,0,0,0,504,58,0,0,0
7,0,0,0,0,3,505,56,0,0,0
8,0,0,0,0,0,509,56,0,0,0
9,0,0,0,0,0,508,57,0,0,0
10,0,0,0,0,0,508,57,0,0,0
11,0,0,0,0,3,505,57,0,0,0
12,0,0,0,0,0,492,56,0,0,0
13,0,0,0,0,0,492,58,0,0,0
14,0,0,0,0,1,497,58,0,0,0
15,0,0,0,0,3,499,58,0,0,0
0,0,0,0,0,0,511,58,0,0,0
1,0,0,0,0,0,521,56,0,0,0
2,0,0,0,0,0,520,57,0,0,0
3,0,0,0,0,3,515,58,0,0,0
4,0,0,0,0,0,516,58,0,0,0
5,0,0,0,0,0,513,58,0,0,0
6,0,0,0,0,0,513,57,0,0,0
7,0,0,0,0,3,518,58,0,0,0
8,0,0,0,0,0,494,58,0,0,0
9,0,0,0,0,0,423,57,0,0,0
10,0,0,0,0,0,441,57,0,0,0
11,0,0,0,0,3,533,56,0,0,0
12,0,0,0,0,0,550,55,0,0,0
13,0,0,0,0,0,494,56,0,0,0
14,0,0,0,0,0,512,56,0,0,0
15,0,0,0,0,3,521,56,0,0,0
0,0,0,0,0,0,523,56,0,0,0
1,0,0,0,0,0,523,56,0,0,0
2,0,0,0,0,0,524,56,0,0,0
3,0,0,0,0,3,524,55,0,0,0
4,0,0,0,0,0,521,56,0,0,0
5,0,0,0,0,0,519,55,0,0,0
6,0,0,0,0,0,515,56,0,0,0
7,0,0,0,0,3,512,56,0,0,0
8,0,0,0,0,0,507,56,0,0,0
9,0,0,0,0,0,507,57,0,0,0
10,0,0,0,0,0,509,58,0,0,0
11,0,0,0,0,3,503,57,0,0,0
12,0,0,0,0,0,499,56,0,0,0
13,0,0,0,0,0,495,57,0,0,0
14,0,0,0,0,0,492,58,0,0,0
15,0,0,0,0,1,491,58,0,0,0
0,0,0,0,0,0,492,57,0,0,0
1,0,0,0,0,0,491,58,0,0,0
2,0,0,0,0,0,494,57,0,0,0
3,0,0,0,0,3,497,57,0,0,0
4,0,0,0,0,0,504,57,0,0,0
5,0,0,0,0,0,513,57,0,0,0
6,0,0,0,0,0,522,56,0,0,0
7,0,0,0,0,3,528,55,0,0,0
8,0,0,0,0,0,528,55,0,0,0
9,0,0,0,0,0,529,55,0,0,0
10,0,0,0,0,0,526,55,0,0,0
11,0,0,0,0,3,526,56,0,0,0
12,0,0,0,0,0,524,57,0,0,0
13,0,0,0,0,0,523,57,0,0,0
14,0,0,0,0,0,519,55,0,0,0
15,0,0,0,0,3,520,57,0,0,0
0,0,0,0,0,0,517,56,0,0,0
1,0,0,0,0,0,512,57,0,0,0
2,0,0,0,0,0,512,56,0,0,0
3,0,0,0,0,3,511,56,0,0,0
4,0,0,0,0,0,508,57,0,0,0
5,0,0,0,0,0,507,56,0,0,0
6,0,0,0,0,0,508,55,0,0,0
7,0,0,0,0,3,513,55,0,0,0
8,0,0,0,0,0,512,55,0,0,0
9,0,0,0,0,0,512,55,0,0,0
10,0,0,0,0,0,505,56,0,0,0
11,0,0,0,0,3,508,57,0,0,0
12,0,0,0,0,0,514,57,0,0,0
13,0,0,0,0,0,519,57,0,0,0
14,0,0,0,0,0,509,57,0,0,0
15,0,0,0,0,3,512,57,0,0,0
0,0,0,0,0,0,518,55,0,0,0
1,0,0,0,0,0,509,55,0,0,0
2,0,0,0,0,0,510,55,0,0,0
3,0,0,0,0,3,506,57,0,0,0
4,0,0,0,0,0,500,56,0,0,0
5,0,0,0,0,0,495,55,0,0,0
6,0,0,0,0,0,472,56,0,0,0
7,0,0,0,0,3,474,57,0,0,0
8,0,0,0,0,0,487,57,0,0,0
9,0,0,0,0,0,534,57,0,0,0
10,0,0,0,0,0,522,57,0,0,0
11,0,0,0,0,0,507,57,0,0,0
12,0,0,0,0,0,479,57,0,0,0
13,0,0,0,0,0,487,57,0,0,0
14,0,0,0,0,0,514,57,0,0,0
15,0,0,0,0,3,516,56,0,0,0
0,0,0,0,0,0,523,57,0,0,0
1,0,0,0,0,0,517,57,0,0,0
2,0,0,0,0,0,499,56,0,0,0
3,0,0,0,0,3,507,57,0,0,0
4,0,0,0,0,0,510,56,0,0,0
5,0,0,0,0,0,529,56,0,0,0
6,0,0,0,0,0,506,55,0,0,0
7,0,0,0,0,3,530,57,0,0,0
8,0,0,0,0,0,463,57,0,0,0
9,0,0,0,0,0,426,56,0,0,0
10,0,0,0,0,0,451,57,0,0,0
11,0,0,0,0,3,575,56,0,0,0
12,0,0,0,0,0,574,57,0,0,0
13,0,0,0,0,0,512,57,0,0,0
14,0,0,0,0,0,526,57,0,0,0
15,0,0,0,0,3,542,57,0,0,0
0,0,0,0,0,0,547,55,0,0,0
1,0,0,0,0,0,535,55,0,0,0
2,0,0,0,0,0,558,55,0,0,0
3,0,0,0,0,3,530,55,0,0,0
4,0,0,0,0,0,522,55,0,0,0
5,0,0,0,0,0,549,55,0,0,0
6,0,0,0,0,0,534,55,0,0,0
7,0,0,0,0,3,530,55,0,0,0
8,0,0,0,0,0,527,56,0,0,0
9,0,0,0,0,0,527,57,0,0,0
10,0,0,0,0,0,519,57,0,0,0
11,0,0,0,0,3,523,55,0,0,0
12,0,0,0,0,0,495,55,0,0,0
13,0,0,0,0,0,496,55,0,0,0
14,0,0,0,0,0,496,55,0,0,0
15,0,0,0,0,3,513,56,0,0,0
0,0,0,0,0,0,505,56,0,0,0
1,0,0,0,0,0,502,56,0,0,0
2,0,0,0,0,0,501,56,0,0,0
3,0,0,0,0,3,513,55,0,0,0
4,0,0,0,0,0,501,56,0,0,0
5,0,0,0,0,0,464,56,0,0,0
6,0,0,0,0,0,471,55,0,0,0
7,0,0,0,0,0,491,54,0,0,0
8,0,0,0,0,0,496,54,0,0,0
9,0,0,0,0,0,475,54,0,0,0
10,0,0,0,0,0,503,54,0,0,0
11,0,0,0,0,3,510,55,0,0,0
12,0,0,0,0,0,514,56,0,0,0
13,0,0,0,0,0,513,56,0,0,0
14,0,0,0,0,0,512,56,0,0,0
15,0,0,0,0,3,495,56,0,0,0
0,0,0,0,0,0,507,55,0,0,0
1,0,0,0,0,0,493,56,0,0,0
2,0,0,0,0,0,530,54,0,0,0
3,0,0,0,0,3,509,56,0,0,0
4,0,0,0,0,0,504,56,0,0,0
5,0,0,0,0,0,502,54,0,0,0
6,0,0,0,0,0,504,55,0,0,0
7,0,0,0,0,3,508,56,0,0,0
8,0,0,0,0,0,507,56,0,0,0
9,0,0,0,0,0,513,56,0,0,0
10,0,0,0,0,0,494,55,0,0,0
11,0,0,0,0,3,546,54,0,0,0
12,0,0,0,0,0,535,54,0,0,0
13,0,0,0,0,0,514,55,0,0,0
14,0,0,0,0,0,515,54,0,0,0
15,0,0,0,0,3,515,55,0,0,0
0,0,0,0,0,0,516,55,0,0,0
1,0,0,0,0,0,505,55,0,0,0
2,0,0,0,0,0,520,55,0,0,0
3,0,0,0,0,3,529,56,0,0,0
4,0,0,0,0,0,512,56,0,0,0
5,0,0,0,0,0,506,56,0,0,0
6,0,0,0,0,0,494,55,0,0,0
7,0,0,0,0,3,497,56,0,0,0
8,0,0,0,0,0,495,56,0,0,0
9,0,0,0,0,0,498,56,0,0,0
10,0,0,0,0,0,508,56,0,0,0
11,0,0,0,0,3,531,56,0,0,0
12,0,0,0,0,0,513,56,0,0,0
13,0,0,0,0,0,513,55,0,0,0
14,0,0,0,0,0,514,56,0,0,0
15,0,0,0,0,3,508,56,0,0,0
0,0,0,0,0,0,516,56,0,0,0
1,0,0,0,0,0,504,56,0,0,0
2,0,0,0,0,0,480,54,0,0,0
3,0,0,0,0,1,437,54,0,0,0
4,0,0,0,0,0,482,54,0,0,0
5,0,0,0,0,0,573,55,0,0,0
6,0,0,0,0,0,519,56,0,0,0
7,0,0,0,0,3,505,56,0,0,0
8,0,0,0,0,0,515,56,0,0,0
9,0,0,0,0,0,519,56,0,0,0
10,0,0,0,0,0,519,56,0,0,0
11,0,0,0,0,3,515,56,0,0,0
12,0,0,0,0,0,509,55,0,0,0
13,0,0,0,0,0,498,55,0,0,0
14,0,0,0,0,0,512,53,0,0,0
15,0,0,0,0,3,518,54,0,0,0
0,0,0,0,0,0,515,53,0,0,0
1,0,0,0,0,0,511,56,0,0,0
2,0,0,0,0,0,508,56,0,0,0
3,0,0,0,0,3,508,54,0,0,0
4,0,0,0,0,0,499,53,0,0,0
5,0,0,0,0,0,496,53,0,0,0
6,0,0,0,0,0,493,56,0,0,0
7,0,0,0,0,0,492,56,0,0,0
8,0,0,0,0,0,452,56,0,0,0
9,0,0,0,0,0,503,56,0,0,0
10,0,0,0,0,0,505,56,0,0,0
11,0,0,0,0,3,503,55,0,0,0
12,0,0,0,0,0,501,54,0,0,0
13,0,0,0,0,0,507,55,0,0,0
14,0,0,0,0,0,520,56,0,0,0
15,0,0,0,0,3,526,56,0,0,0
0,0,0,0,0,0,527,56,0,0,0
1,0,0,0,0,0,526,56,0,0,0
2,0,0,0,0,0,526,55,0,0,0
3,0,0,0,0,3,521,53,0,0,0
4,0,0,0,0,0,544,53,0,0,0
5,0,0,0,0,0,536,55,0,0,0
6,0,0,0,0,0,527,55,0,0,0
7,0,0,0,0,3,524,55,0,0,0
8,0,0,0,0,0,519,56,0,0,0
9,0,0,0,0,0,518,56,0,0,0
10,0,0,0,0,0,511,55,0,0,0
11,0,0,0,0,3,508,55,0,0,0
12,0,0,0,0,0,515,55,0,0,0
13,0,0,0,0,0,514,56,0,0,0
14,0,0,0,0,0,520,54,0,0,0
15,0,0,0,0,3,511,53,0,0,0
0,0,0,0,0,0,512,53,0,0,0
1,0,0,0,0,0,503,53,0,0,0
2,0,0,0,0,0,514,53,0,0,0
3,0,0,0,0,3,499,53,0,0,0
4,0,0,0,0,0,515,53,0,0,0
5,0,0,0,0,0,515,54,0,0,0
6,0,0,0,0,0,511,55,0,0,0
7,0,0,0,0,3,505,55,0,0,0
8,0,0,0,0,0,515,53,0,0,0
9,0,0,0,0,0,496,55,0,0,0
10,0,0,0,0,0,512,56,0,0,0
11,0,0,0,0,3,505,55,0,0,0
12,0,0,0,0,0,507,55,0,0,0
13,0,0,0,0,0,500,55,0,0,0
14,0,0,0,0,0,499,56,0,0,0
15,0,0,0,0,3,501,56,0,0,0
0,0,0,0,0,0,494,56,0,0,0
1,0,0,0,0,0,488,56,0,0,0
2,0,0,0,0,0,519,55,0,0,0
3,0,0,0,0,0,509,54,0,0,0
4,0,0,0,0,0,518,53,0,0,0
5,0,0,0,0,0,526,53,0,0,0
6,0,0,0,0,0,518,54,0,0,0
7,0,0,0,0,3,520,55,0,0,0
8,0,0,0,0,0,520,55,0,0,0
9,0,0,0,0,0,519,55,0,0,0
10,0,0,0,0,0,520,54,0,0,0
11,0,0,0,0,3,518,53,0,0,0
12,0,0,0,0,0,480,55,0,0,0
13,0,0,0,0,0,433,54,0,0,0
14,0,0,0,0,0,476,55,0,0,0
15,0,0,0,0,3,561,55,0,0,0
0,0,0,0,0,0,505,55,0,0,0
1,0,0,0,0,0,505,56,0,0,0
2,0,0,0,0,0,502,56,0,0,0
3,0,0,0,0,3,528,55,0,0,0
4,0,0,0,0,0,525,53,0,0,0
5,0,0,0,0,0,517,54,0,0,0
6,0,0,0,0,0,513,56,0,0,0
7,0,0,0,0,3,511,56,0,0,0
8,0,0,0,0,0,500,56,0,0,0
9,0,0,0,0,0,503,54,0,0,0
10,0,0,0,0,0,509,55,0,0,0
11,0,0,0,0,3,505,54,0,0,0
12,0,0,0,0,0,508,56,0,0,0
13,0,0,0,0,0,505,56,0,0,0
14,0,0,0,0,0,502,56,0,0,0
15,0,0,0,0,3,498,56,0,0,0
0,0,0,0,0,0,497,56,0,0,0
1,0,0,0,0,0,498,56,0,0,0
2,0,0,0,0,0,498,56,0,0,0
3,0,0,0,0,3,482,56,0,0,0
4,0,0,0,0,0,485,55,0,0,0
5,0,0,0,0,0,490,54,0,0,0
6,0,0,0,0,0,496,54,0,0,0
7,0,0,0,0,3,491,56,0,0,0
8,0,0,0,0,0,504,56,0,0,0
9,0,0,0,0,0,518,54,0,0,0
10,0,0,0,0,0,517,55,0,0,0
11,0,0,0,0,3,519,55,0,0,0
12,0,0,0,0,0,521,55,0,0,0
13,0,0,0,0,0,520,56,0,0,0
14,0,0,0,0,0,519,57,0,0,0
15,0,0,0,0,0,517,57,0,0,0
0,0,0,0,0,0,496,57,0,0,0
1,0,0,0,0,0,526,57,0,0,0
2,0,0,0,0,0,521,57,0,0,0
3,0,0,0,0,3,517,56,0,0,0
4,0,0,0,0,0,510,56,0,0,0
5,0,0,0,0,0,505,57,0,0,0
6,0,0,0,0,0,505,57,0,0,0
7,0,0,0,0,3,504,55,0,0,0
8,0,0,0,0,0,504,55,0,0,0
9,0,0,0,0,0,501,57,0,0,0
10,0,0,0,0,0,502,55,0,0,0
11,0,0,0,0,3,503,57,0,0,0
12,0,0,0,0,0,502,56,0,0,0
13,0,0,0,0,0,505,55,0,0,0
14,0,0,0,0,0,510,55,0,0,0
15,0,0,0,0,3,511,56,0,0,0
0,0,0,0,0,0,514,57,0,0,0
1,0,0,0,0,0,515,57,0,0,0
2,0,0,0,0,0,509,55,0,0,0
3,0,0,0,0,3,515,57,0,0,0
4,0,0,0,0,0,513,57,0,0,0
5,0,0,0,0,0,511,55,0,0,0
6,0,0,0,0,0,505,57,0,0,0
7,0,0,0,0,3,502,56,0,0,0
8,0,0,0,0,0,502,56,0,0,0
9,0,0,0,0,0,493,57,0,0,0
10,0,0,0,0,0,489,57,0,0,0
11,0,0,0,0,3,492,55,0,0,0
12,0,0,0,0,0,502,55,0,0,0
13,0,0,0,0,0,511,55,0,0,0
14,0,0,0,0,0,514,57,0,0,0
15,0,0,0,0,3,514,57,0,0,0
0,0,0,0,0,0,512,55,0,0,0
1,0,0,0,0,0,507,55,0,0,0
2,0,0,0,0,0,519,56,0,0,0
3,0,0,0,0,3,507,55,0,0,0
4,0,0,0,0,0,526,57,0,0,0
5,0,0,0,0,0,501,57,0,0,0
6,0,0,0,0,0,448,57,0,0,0
7,0,0,0,0,3,435,57,0,0,0
8,0,0,0,0,0,524,56,0,0,0
9,0,0,0,0,0,577,55,0,0,0
10,0,0,0,0,0,522,56,0,0,0
11,0,0,0,0,0,529,56,0,0,0
12,0,0,0,0,0,514,55,0,0,0
13,0,0,0,0,0,543,57,0,0,0
14,0,0,0,0,0,549,55,0,0,0
15,0,0,0,0,3,556,55,0,0,0
0,0,0,0,0,0,556,56,0,0,0
1,0,0,0,0,0,562,56,0,0,0
2,0,0,0,0,0,554,55,0,0,0
3,0,0,0,0,3,551,56,0,0,0
4,0,0,0,0,0,533,58,0,0,0
5,0,0,0,0,0,527,58,0,0,0
6,0,0,0,0,0,515,57,0,0,0
7,0,0,0,0,3,501,58,0,0,0
8,0,0,0,0,0,497,58,0,0,0
9,0,0,0,0,0,495,58,0,0,0
10,0,0,0,0,0,490,58,0,0,0
11,0,0,0,0,3,483,57,0,0,0
12,0,0,0,0,0,477,57,0,0,0
13,0,0,0,0,0,475,58,0,0,0
14,0,0,0,0,0,472,56,0,0,0
15,0,0,0,0,3,475,56,0,0,0
0,0,0,0,0,0,493,56,0,0,0
1,0,0,0,0,0,505,57,0,0,0
2,0,0,0,0,0,514,58,0,0,0
3,0,0,0,0,3,522,58,0,0,0
4,0,0,0,0,0,531,57,0,0,0
5,0,0,0,0,0,537,58,0,0,0
6,0,0,0,0,0,539,58,0,0,0
7,0,0,0,0,3,532,58,0,0,0
8,0,0,0,0,0,524,58,0,0,0
9,0,0,0,0,0,511,58,0,0,0
10,0,0,0,0,0,504,58,0,0,0
11,0,0,0,0,3,503,57,0,0,0
12,0,0,0,0,0,510,57,0,0,0
13,0,0,0,0,0,508,58,0,0,0
14,0,0,0,0,0,503,58,0,0,0
15,0,0,0,0,3,500,58,0,0,0
0,0,0,0,0,0,493,58,0,0,0
1,0,0,0,0,0,490,58,0,0,0
2,0,0,0,0,0,491,58,0,0,0
3,0,0,0,0,3,495,58,0,0,0
4,0,0,0,0,0,493,57,0,0,0
5,0,0,0,0,0,496,56,0,0,0
6,0,0,0,0,0,495,56,0,0,0
7,0,0,0,0,1,503,56,0,0,0
8,0,0,0,0,0,505,57,0,0,0
9,0,0,0,0,0,506,57,0,0,0
10,0,0,0,0,0,509,57,0,0,0
11,0,0,0,0,3,512,56,0,0,0
12,0,0,0,0,0,512,57,0,0,0
13,0,0,0,0,0,512,56,0,0,0
14,0,0,0,0,0,517,56,0,0,0
15,0,0,0,0,3,515,57,0,0,0
0,0,0,0,0,0,516,56,0,0,0
1,0,0,0,0,0,514,56,0,0,0
2,0,0,0,0,0,507,55,0,0,0
3,0,0,0,0,3,510,56,0,0,0
4,0,0,0,0,0,510,57,0,0,0
5,0,0,0,0,0,518,58,0,0,0
6,0,0,0,0,0,524,57,0,0,0
7,0,0,0,0,3,526,55,0,0,0
8,0,0,0,0,0,527,55,0,0,0
9,0,0,0,0,0,524,56,0,0,0
10,0,0,0,0,0,526,57,0,0,0
11,0,0,0,0,3,524,57,0,0,0
12,0,0,0,0,0,526,58,0,0,0
13,0,0,0,0,0,530,57,0,0,0
14,0,0,0,0,0,505,58,0,0,0
15,0,0,0,0,3,434,57,0,0,0
0,0,0,0,0,0,462,57,0,0,0
1,0,0,0,0,0,566,58,0,0,0
2,0,0,0,0,0,557,58,0,0,0
3,0,0,0,0,3,505,56,0,0,0
4,0,0,0,0,0,524,55,0,0,0
5,0,0,0,0,0,527,56,0,0,0
6,0,0,0,0,0,524,55,0,0,0
7,0,0,0,0,3,522,57,0,0,0
8,0,0,0,0,0,519,57,0,0,0
9,0,0,0,0,0,517,58,0,0,0
10,0,0,0,0,0,515,58,0,0,0
11,0,0,0,0,3,512,57,0,0,0
12,0,0,0,0,0,506,58,0,0,0
13,0,0,0,0,0,501,57,0,0,0
14,0,0,0,0,0,498,57,0,0,0
15,0,0,0,0,3,493,57,0,0,0
0,0,0,0,0,0,495,55,0,0,0
1,0,0,0,0,0,491,55,0,0,0
2,0,0,0,0,0,487,55,0,0,0
3,0,0,0,0,0,484,57,0,0,0
4,0,0,0,0,0,481,56,0,0,0
5,0,0,0,0,0,473,55,0,0,0
6,0,0,0,0,0,472,55,0,0,0
7,0,0,0,0,3,470,56,0,0,0
8,0,0,0,0,0,481,56,0,0,0
9,0,0,0,0,0,492,55,0,0,0
10,0,0,0,0,0,504,57,0,0,0
11,0,0,0,0,3,508,57,0,0,0
12,0,0,0,0,0,515,57,0,0,0
13,0,0,0,0,0,515,56,0,0,0
14,0,0,0,0,0,516,57,0,0,0
15,0,0,0,0,3,515,57,0,0,0
0,0,0,0,0,0,518,57,0,0,0
1,0,0,0,0,0,516,57,0,0,0
2,0,0,0,0,0,512,57,0,0,0
3,0,0,0,0,3,505,56,0,0,0
4,0,0,0,0,0,501,56,0,0,0
5,0,0,0,0,0,499,55,0,0,0
6,0,0,0,0,0,504,55,0,0,0
7,0,0,0,0,3,502,55,0,0,0
8,0,0,0,0,0,503,57,0,0,0
9,0,0,0,0,0,506,57,0,0,0
10,0,0,0,0,0,507,56,0,0,0
11,0,0,0,0,3,505,55,0,0,0
12,0,0,0,0,0,507,56,0,0,0
13,0,0,0,0,0,505,56,0,0,0
14,0,0,0,0,0,504,56,0,0,0
15,0,0,0,0,3,505,56,0,0,0
0,0,0,0,0,0,510,56,0,0,0
1,0,0,0,0,0,515,56,0,0,0
2,0,0,0,0,0,519,54,0,0,0
3,0,0,0,0,3,515,56,0,0,0
4,0,0,0,0,0,513,56,0,0,0
5,0,0,0,0,0,508,56,0,0,0
6,0,0,0,0,0,507,55,0,0,0
7,0,0,0,0,3,505,56,0,0,0
8,0,0,0,0,0,499,57,0,0,0
9,0,0,0,0,0,507,56,0,0,0
10,0,0,0,0,0,501,56,0,0,0
11,0,0,0,0,3,511,55,0,0,0
12,0,0,0,0,0,528,55,0,0,0
13,0,0,0,0,0,531,54,0,0,0
14,0,0,0,0,0,534,54,0,0,0
15,0,0,0,0,1,534,55,0,0,0
0,0,0,0,0,0,531,54,0,0,0
1,0,0,0,0,0,528,54,0,0,0
2,0,0,0,0,0,530,55,0,0,0
3,0,0,0,0,3,530,56,0,0,0
4,0,0,0,0,0,514,56,0,0,0
5,0,0,0,0,0,453,56,0,0,0
6,0,0,0,0,0,491,56,0,0,0
7,0,0,0,0,3,580,56,0,0,0
8,0,0,0,0,0,572,56,0,0,0
9,0,0,0,0,0,519,54,0,0,0
10,0,0,0,0,0,527,54,0,0,0
11,0,0,0,0,3,530,55,0,0,0
12,0,0,0,0,0,524,56,0,0,0
13,0,0,0,0,0,528,56,0,0,0
14,0,0,0,0,0,533,54,0,0,0
15,0,0,0,0,3,531,54,0,0,0
0,0,0,0,0,0,532,54,0,0,0
1,0,0,0,0,0,525,56,0,0,0
2,0,0,0,0,0,523,56,0,0,0
3,0,0,0,0,1,519,55,0,0,0
4,0,0,0,0,0,517,55,0,0,0
5,0,0,0,0,0,513,55,0,0,0
6,0,0,0,0,0,512,55,0,0,0
7,0,0,0,0,3,508,55,0,0,0
8,0,0,0,0,0,503,54,0,0,0
9,0,0,0,0,0,503,56,0,0,0
10,0,0,0,0,0,501,56,0,0,0
11,0,0,0,0,3,497,56,0,0,0
12,0,0,0,0,0,492,56,0,0,0
13,0,0,0,0,0,494,56,0,0,0
14,0,0,0,0,0,500,56,0,0,0
15,0,0,0,0,3,508,56,0,0,0
0,0,0,0,0,0,519,55,0,0,0
1,0,0,0,0,0,523,55,0,0,0
2,0,0,0,0,0,527,55,0,0,0
3,0,0,0,0,3,533,54,0,0,0
4,0,0,0,0,0,532,53,0,0,0
5,0,0,0,0,0,528,54,0,0,0
6,0,0,0,0,0,530,53,0,0,0
7,0,0,0,0,3,527,53,0,0,0
8,0,0,0,0,1,525,53,0,0,0
9,0,0,0,0,0,520,55,0,0,0
10,0,0,0,0,0,518,55,0,0,0
11,0,0,0,0,3,516,56,0,0,0
12,0,0,0,0,0,514,56,0,0,0
13,0,0,0,0,0,512,56,0,0,0
14,0,0,0,0,0,515,56,0,0,0
15,0,0,0,0,3,511,56,0,0,0
0,0,0,0,0,0,509,55,0,0,0
1,0,0,0,0,0,512,54,0,0,0
2,0,0,0,0,0,517,53,0,0,0
3,0,0,0,0,3,517,53,0,0,0
4,0,0,0,0,0,517,53,0,0,0
5,0,0,0,0,0,514,56,0,0,0
6,0,0,0,0,0,514,56,0,0,0
7,0,0,0,0,3,515,56,0,0,0
8,0,0,0,0,0,517,55,0,0,0
9,0,0,0,0,0,510,55,0,0,0
10,0,0,0,0,0,509,56,0,0,0
11,0,0,0,0,3,505,55,0,0,0
12,0,0,0,0,0,503,54,0,0,0
13,0,0,0,0,0,505,53,0,0,0
14,0,0,0,0,0,507,54,0,0,0
15,0,0,0,0,0,511,54,0,0,0
0,0,0,0,0,0,523,55,0,0,0
1,0,0,0,0,0,526,56,0,0,0
2,0,0,0,0,0,527,55,0,0,0
3,0,0,0,0,3,524,53,0,0,0
4,0,0,0,0,0,524,54,0,0,0
5,0,0,0,0,0,521,55,0,0,0
6,0,0,0,0,0,522,55,0,0,0
7,0,0,0,0,3,523,55,0,0,0
8,0,0,0,0,0,509,54,0,0,0
9,0,0,0,0,0,443,53,0,0,0
10,0,0,0,0,0,448,53,0,0,0
11,0,0,0,0,3,527,54,0,0,0
12,0,0,0,0,0,562,53,0,0,0
13,0,0,0,0,0,502,53,0,0,0
14,0,0,0,0,0,507,55,0,0,0
15,0,0,0,0,3,512,55,0,0,0
0,0,0,0,0,0,516,55,0,0,0
1,0,0,0,0,0,512,55,0,0,0
2,0,0,0,0,0,515,54,0,0,0
3,0,0,0,0,3,511,53,0,0,0
4,0,0,0,0,0,508,55,0,0,0
5,0,0,0,0,0,507,55,0,0,0
6,0,0,0,0,0,512,55,0,0,0
7,0,0,0,0,3,512,55,0,0,0
8,0,0,0,0,0,509,54,0,0,0
9,0,0,0,0,0,510,52,0,0,0
10,0,0,0,0,0,511,55,0,0,0
11,0,0,0,0,3,510,54,0,0,0
12,0,0,0,0,0,506,52,0,0,0
13,0,0,0,0,0,502,53,0,0,0
14,0,0,0,0,0,493,53,0,0,0
15,0,0,0,0,3,489,53,0,0,0
0,0,0,0,0,0,491,53,0,0,0
1,0,0,0,0,0,492,53,0,0,0
2,0,0,0,0,0,501,53,0,0,0
3,0,0,0,0,3,502,53,0,0,0
4,0,0,0,0,0,510,53,0,0,0
5,0,0,0,0,0,519,54,0,0,0
6,0,0,0,0,0,527,54,0,0,0
7,0,0,0,0,3,532,55,0,0,0
8,0,0,0,0,0,533,55,0,0,0
9,0,0,0,0,0,532,55,0,0,0
10,0,0,0,0,0,528,55,0,0,0
11,0,0,0,0,0,528,54,0,0,0
12,0,0,0,0,0,527,54,0,0,0
13,0,0,0,0,0,528,54,0,0,0
14,0,0,0,0,0,526,55,0,0,0
15,0,0,0,0,3,521,55,0,0,0
0,0,0,0,0,0,516,55,0,0,0
1,0,0,0,0,0,514,54,0,0,0
2,0,0,0,0,0,515,54,0,0,0
3,0,0,0,0,3,512,54,0,0,0
4,0,0,0,0,0,515,54,0,0,0
5,0,0,0,0,0,517,52,0,0,0
6,0,0,0,0,0,516,54,0,0,0
7,0,0,0,0,3,516,54,0,0,0
8,0,0,0,0,0,513,54,0,0,0
9,0,0,0,0,0,511,53,0,0,0
10,0,0,0,0,0,511,54,0,0,0
11,0,0,0,0,3,515,54,0,0,0
12,0,0,0,0,0,515,53,0,0,0
13,0,0,0,0,0,513,53,0,0,0
14,0,0,0,0,1,509,53,0,0,0
15,0,0,0,0,3,503,52,0,0,0
0,0,0,0,0,0,499,53,0,0,0
1,0,0,0,0,0,498,53,0,0,0
2,0,0,0,0,0,497,54,0,0,0
3,0,0,0,0,3,502,53,0,0,0
4,0,0,0,0,0,509,55,0,0,0
5,0,0,0,0,0,522,53,0,0,0
6,0,0,0,0,0,532,54,0,0,0
7,0,0,0,0,3,542,55,0,0,0
8,0,0,0,0,0,535,55,0,0,0
9,0,0,0,0,0,531,55,0,0,0
10,0,0,0,0,0,529,54,0,0,0
11,0,0,0,0,3,520,55,0,0,0
12,0,0,0,0,0,521,53,0,0,0
13,0,0,0,0,0,517,54,0,0,0
14,0,0,0,0,0,483,54,0,0,0
15,0,0,0,0,3,424,53,0,0,0
0,0,0,0,0,1,469,55,0,0,0
1,0,0,0,0,0,556,55,0,0,0
2,0,0,0,0,0,531,54,0,0,0
3,0,0,0,0,3,499,52,0,0,0
4,0,0,0,0,0,516,53,0,0,0
5,0,0,0,0,0,524,53,0,0,0
6,0,0,0,0,0,521,53,0,0,0
7,0,0,0,0,0,516,53,0,0,0
8,0,0,0,0,0,510,52,0,0,0
9,0,0,0,0,0,504,53,0,0,0
10,0,0,0,0,0,503,53,0,0,0
11,0,0,0,0,3,496,53,0,0,0
12,0,0,0,0,0,492,53,0,0,0
13,0,0,0,0,0,485,53,0,0,0
14,0,0,0,0,0,481,54,0,0,0
15,0,0,0,0,3,481,53,0,0,0
0,0,0,0,0,0,481,53,0,0,0
1,0,0,0,0,0,489,53,0,0,0
2,0,0,0,0,0,494,53,0,0,0
3,0,0,0,0,3,487,54,0,0,0
4,0,0,0,0,0,481,55,0,0,0
5,0,0,0,0,0,475,54,0,0,0
6,0,0,0,0,0,474,54,0,0,0
7,0,0,0,0,3,480,55,0,0,0
8,0,0,0,0,1,488,55,0,0,0
9,0,0,0,0,0,499,55,0,0,0
10,0,0,0,0,0,515,53,0,0,0
11,0,0,0,0,3,520,55,0,0,0
12,0,0,0,0,0,527,54,0,0,0
13,0,0,0,0,0,531,53,0,0,0
14,0,0,0,0,1,534,56,0,0,0
15,0,0,0,0,3,534,56,0,0,0
0,0,0,0,0,0,538,56,0,0,0
1,0,0,0,0,0,536,53,0,0,0
2,0,0,0,0,0,532,54,0,0,0
3,0,0,0,0,3,521,53,0,0,0
4,0,0,0,0,1,517,53,0,0,0
5,0,0,0,0,0,515,56,0,0,0
6,0,0,0,0,0,516,56,0,0,0
7,0,0,0,0,3,511,55,0,0,0
8,0,0,0,0,0,512,54,0,0,0
9,0,0,0,0,0,510,55,0,0,0
10,0,0,0,0,0,510,53,0,0,0
11,0,0,0,0,3,508,53,0,0,0
12,0,0,0,0,0,507,55,0,0,0
13,0,0,0,0,0,506,55,0,0,0
14,0,0,0,0,0,506,56,0,0,0
15,0,0,0,0,3,507,56,0,0,0
0,0,0,0,0,1,506,56,0,0,0
1,0,0,0,0,0,507,56,0,0,0
2,0,0,0,0,0,508,56,0,0,0
3,0,0,0,0,1,508,56,0,0,0
4,0,0,0,0,0,508,56,0,0,0
5,0,0,0,0,0,502,56,0,0,0
6,0,0,0,0,1,497,55,0,0,0
7,0,0,0,0,3,496,54,0,0,0
8,0,0,0,0,0,494,54,0,0,0
9,0,0,0,0,0,496,54,0,0,0
10,0,0,0,0,0,504,55,0,0,0
11,0,0,0,0,3,512,57,0,0,0
12,0,0,0,0,1,523,56,0,0,0
13,0,0,0,0,0,526,56,0,0,0
14,0,0,0,0,0,524,55,0,0,0
15,0,0,0,0,3,513,55,0,0,0
0,0,0,0,0,0,513,54,0,0,0
1,0,0,0,0,0,513,56,0,0,0
2,0,0,0,0,0,518,56,0,0,0
3,0,0,0,0,3,520,54,0,0,0
4,0,0,0,0,0,500,55,0,0,0
5,0,0,0,0,0,426,54,0,0,0
6,0,0,0,0,0,446,54,0,0,0
7,0,0,0,0,3,544,54,0,0,0
8,0,0,0,0,1,564,55,0,0,0
9,0,0,0,0,0,497,54,0,0,0
10,0,0,0,0,0,508,55,0,0,0
11,0,0,0,0,3,510,55,0,0,0
12,0,0,0,0,0,505,57,0,0,0
13,0,0,0,0,0,499,57,0,0,0
14,0,0,0,0,0,501,56,0,0,0
15,0,0,0,0,3,499,56,0,0,0
0,0,0,0,0,0,500,56,0,0,0
1,0,0,0,0,0,504,56,0,0,0
2,0,0,0,0,0,510,57,0,0,0
3,0,0,0,0,3,507,56,0,0,0
4,0,0,0,0,1,504,56,0,0,0
5,0,0,0,0,0,503,56,0,0,0
6,0,0,0,0,0,506,56,0,0,0
7,0,0,0,0,3,508,56,0,0,0
8,0,0,0,0,0,510,56,0,0,0
9,0,0,0,0,0,507,56,0,0,0
10,0,0,0,0,1,503,56,0,0,0
11,0,0,0,0,3,498,55,0,0,0
12,0,0,0,0,0,501,54,0,0,0
13,0,0,0,0,0,502,54,0,0,0
14,0,0,0,0,0,504,55,0,0,0
15,0,0,0,0,1,513,56,0,0,0
0,0,0,0,0,1,523,54,0,0,0
1,0,0,0,0,0,528,54,0,0,0
2,0,0,0,0,0,535,54,0,0,0
3,0,0,0,0,3,538,55,0,0,0
4,0,0,0,0,0,539,55,0,0,0
5,0,0,0,0,0,539,54,0,0,0
6,0,0,0,0,1,541,54,0,0,0
7,0,0,0,0,3,543,54,0,0,0
8,0,0,0,0,0,536,55,0,0,0
9,0,0,0,0,0,529,56,0,0,0
10,0,0,0,0,0,530,56,0,0,0
11,0,0,0,0,3,529,56,0,0,0
12,0,0,0,0,0,524,54,0,0,0
13,0,0,0,0,0,521,56,0,0,0
14,0,0,0,0,0,520,56,0,0,0
15,0,0,0,0,3,519,56,0,0,0
0,0,0,0,0,0,521,55,0,0,0
1,0,0,0,0,0,518,54,0,0,0
2,0,0,0,0,1,520,54,0,0,0
3,0,0,0,0,3,518,54,0,0,0
4,0,0,0,0,0,510,56,0,0,0
5,0,0,0,0,0,507,56,0,0,0
6,0,0,0,0,0,510,56,0,0,0
7,0,0,0,0,3,507,54,0,0,0
8,0,0,0,0,1,511,54,0,0,0
9,0,0,0,0,0,508,55,0,0,0
10,0,0,0,0,0,505,56,0,0,0
11,0,0,0,0,3,500,55,0,0,0
12,0,0,0,0,0,496,54,0,0,0
13,0,0,0,0,0,491,54,0,0,0
14,0,0,0,0,0,492,54,0,0,0
15,0,0,0,0,3,486,54,0,0,0
0,0,0,0,0,0,484,54,0,0,0
1,0,0,0,0,0,490,55,0,0,0
2,0,0,0,0,0,494,54,0,0,0
3,0,0,0,0,3,501,55,0,0,0
4,0,0,0,0,1,512,55,0,0,0
5,0,0,0,0,0,516,56,0,0,0
6,0,0,0,0,0,514,56,0,0,0
7,0,0,0,0,3,513,56,0,0,0
8,0,0,0,0,0,518,56,0,0,0
9,0,0,0,0,0,515,56,0,0,0
10,0,0,0,0,1,524,55,0,0,0
11,0,0,0,0,1,514,55,0,0,0
12,0,0,0,0,0,454,56,0,0,0
13,0,0,0,0,0,421,55,0,0,0
14,0,0,0,0,0,488,56,0,0,0
15,0,0,0,0,3,578,56,0,0,0
0,0,0,0,0,1,509,56,0,0,0
1,0,0,0,0,0,495,56,0,0,0
2,0,0,0,0,0,510,55,0,0,0
3,0,0,0,0,3,512,56,0,0,0
4,0,0,0,0,0,512,56,0,0,0
5,0,0,0,0,0,505,55,0,0,0
6,0,0,0,0,1,507,54,0,0,0
7,0,0,0,0,3,505,55,0,0,0
8,0,0,0,0,0,507,56,0,0,0
9,0,0,0,0,0,505,55,0,0,0
10,0,0,0,0,0,507,56,0,0,0
11,0,0,0,0,3,507,56,0,0,0
12,0,0,0,0,1,506,56,0,0,0
13,0,0,0,0,0,502,54,0,0,0
14,0,0,0,0,0,504,53,0,0,0
15,0,0,0,0,1,503,54,0,0,0
0,0,0,0,0,0,502,55,0,0,0
1,0,0,0,0,0,497,56,0,0,0
2,0,0,0,0,1,491,53,0,0,0
3,0,0,0,0,3,487,54,0,0,0
4,0,0,0,0,0,485,54,0,0,0
5,0,0,0,0,0,487,56,0,0,0
6,0,0,0,0,0,497,54,0,0,0
7,0,0,0,0,3,506,53,0,0,0
8,0,0,0,0,0,518,55,0,0,0
9,0,0,0,0,0,523,56,0,0,0
10,0,0,0,0,0,528,56,0,0,0
11,0,0,0,0,3,530,55,0,0,0
12,0,0,0,0,0,529,56,0,0,0
13,0,0,0,0,0,525,56,0,0,0
14,0,0,0,0,0,521,55,0,0,0
15,0,0,0,0,3,519,54,0,0,0
0,0,0,0,0,0,515,54,0,0,0
1,0,0,0,0,0,510,56,0,0,0
2,0,0,0,0,0,508,55,0,0,0
3,0,0,0,0,3,505,55,0,0,0
4,0,0,0,0,1,508,55,0,0,0
5,0,0,0,0,0,512,54,0,0,0
6,0,0,0,0,0,517,53,0,0,0
7,0,0,0,0,3,517,54,0,0,0
8,0,0,0,0,0,517,53,0,0,0
9,0,0,0,0,0,515,53,0,0,0
10,0,0,0,0,1,512,54,0,0,0
11,0,0,0,0,3,510,53,0,0,0
12,0,0,0,0,0,511,54,0,0,0
13,0,0,0,0,0,510,55,0,0,0
14,0,0,0,0,0,512,56,0,0,0
15,0,0,0,0,3,512,55,0,0,0
0,0,0,0,0,0,508,55,0,0,0
1,0,0,0,0,0,505,53,0,0,0
2,0,0,0,0,0,496,53,0,0,0
3,0,0,0,0,3,500,55,0,0,0
4,0,0,0,0,0,494,55,0,0,0
5,0,0,0,0,0,494,55,0,0,0
6,0,0,0,0,0,502,55,0,0,0
7,0,0,0,0,3,495,55,0,0,0
8,0,0,0,0,0,499,53,0,0,0
9,0,0,0,0,0,520,54,0,0,0
10,0,0,0,0,0,521,56,0,0,0
11,0,0,0,0,0,512,55,0,0,0
12,0,0,0,0,1,505,54,0,0,0
13,0,0,0,0,0,498,55,0,0,0
14,0,0,0,0,0,504,55,0,0,0
15,0,0,0,0,3,522,55,0,0,0
0,0,0,0,0,0,532,54,0,0,0
1,0,0,0,0,0,495,55,0,0,0
2,0,0,0,0,1,448,55,0,0,0
3,0,0,0,0,3,490,55,0,0,0
4,0,0,0,0,0,584,55,0,0,0
5,0,0,0,0,0,550,52,0,0,0
6,0,0,0,0,0,512,53,0,0,0
7,0,0,0,0,3,526,55,0,0,0
8,0,0,0,0,0,529,55,0,0,0
9,0,0,0,0,0,527,55,0,0,0
10,0,0,0,0,0,521,55,0,0,0
11,0,0,0,0,3,516,54,0,0,0
12,0,0,0,0,0,515,53,0,0,0
13,0,0,0,0,0,516,54,0,0,0
14,0,0,0,0,1,522,55,0,0,0
15,0,0,0,0,3,517,55,0,0,0
0,0,0,0,0,0,518,55,0,0,0
1,0,0,0,0,0,512,55,0,0,0
2,0,0,0,0,0,509,54,0,0,0
3,0,0,0,0,3,505,54,0,0,0
4,0,0,0,0,1,504,54,0,0,0
5,0,0,0,0,0,500,55,0,0,0
6,0,0,0,0,0,497,54,0,0,0
7,0,0,0,0,3,491,53,0,0,0
8,0,0,0,0,0,487,54,0,0,0
9,0,0,0,0,0,484,54,0,0,0
10,0,0,0,0,0,486,54,0,0,0
11,0,0,0,0,3,489,52,0,0,0
12,0,0,0,0,0,502,52,0,0,0
13,0,0,0,0,0,511,55,0,0,0
14,0,0,0,0,0,518,55,0,0,0
15,0,0,0,0,3,521,55,0,0,0
0,0,0,0,0,0,526,54,0,0,0
1,0,0,0,0,0,527,54,0,0,0
2,0,0,0,0,0,527,54,0,0,0
3,0,0,0,0,3,526,54,0,0,0
4,0,0,0,0,0,528,52,0,0,0
5,0,0,0,0,0,528,52,0,0,0
6,0,0,0,0,1,529,53,0,0,0
7,0,0,0,0,0,526,54,0,0,0
8,0,0,0,0,0,521,54,0,0,0
9,0,0,0,0,0,517,54,0,0,0
10,0,0,0,0,0,515,52,0,0,0
11,0,0,0,0,3,510,54,0,0,0
12,0,0,0,0,1,510,54,0,0,0
13,0,0,0,0,0,510,54,0,0,0
14,0,0,0,0,0,510,53,0,0,0
15,0,0,0,0,3,509,52,0,0,0
0,0,0,0,0,0,511,54,0,0,0
1,0,0,0,0,0,512,54,0,0,0
2,0,0,0,0,1,512,54,0,0,0
3,0,0,0,0,3,510,54,0,0,0
4,0,0,0,0,0,507,53,0,0,0
5,0,0,0,0,0,504,51,0,0,0
6,0,0,0,0,0,505,52,0,0,0
7,0,0,0,0,3,501,53,0,0,0
8,0,0,0,0,1,498,54,0,0,0
9,0,0,0,0,0,496,54,0,0,0
10,0,0,0,0,0,492,54,0,0,0
11,0,0,0,0,3,496,52,0,0,0
12,0,0,0,0,0,502,52,0,0,0
13,0,0,0,0,0,510,54,0,0,0
14,0,0,0,0,1,519,54,0,0,0
15,0,0,0,0,3,520,54,0,0,0
0,0,0,0,0,0,518,52,0,0,0
1,0,0,0,0,0,523,51,0,0,0
2,0,0,0,0,0,523,54,0,0,0
3,0,0,0,0,3,520,54,0,0,0
4,0,0,0,0,1,527,54,0,0,0
5,0,0,0,0,0,521,54,0,0,0
6,0,0,0,0,0,466,54,0,0,0
7,0,0,0,0,3,428,54,0,0,0
8,0,0,0,0,0,487,54,0,0,0
9,0,0,0,0,0,573,53,0,0,0
10,0,0,0,0,0,521,53,0,0,0
11,0,0,0,0,3,507,53,0,0,0
12,0,0,0,0,0,524,51,0,0,0
13,0,0,0,0,0,521,53,0,0,0
14,0,0,0,0,0,519,54,0,0,0
15,0,0,0,0,3,515,54,0,0,0
0,0,0,0,0,1,510,54,0,0,0
1,0,0,0,0,0,509,53,0,0,0
2,0,0,0,0,0,508,54,0,0,0
3,0,0,0,0,1,506,54,0,0,0
4,0,0,0,0,0,509,52,0,0,0
5,0,0,0,0,0,510,51,0,0,0
6,0,0,0,0,1,511,53,0,0,0
7,0,0,0,0,3,507,51,0,0,0
8,0,0,0,0,0,504,52,0,0,0
9,0,0,0,0,0,500,53,0,0,0
10,0,0,0,0,0,499,54,0,0,0
11,0,0,0,0,3,496,54,0,0,0
12,0,0,0,0,0,499,54,0,0,0
13,0,0,0,0,0,495,52,0,0,0
14,0,0,0,0,0,497,53,0,0,0
15,0,0,0,0,3,500,53,0,0,0
0,0,0,0,0,0,506,53,0,0,0
1,0,0,0,0,0,514,53,0,0,0
2,0,0,0,0,0,520,53,0,0,0
3,0,0,0,0,3,524,53,0,0,0
4,0,0,0,0,0,526,53,0,0,0
5,0,0,0,0,0,530,53,0,0,0
6,0,0,0,0,0,529,53,0,0,0
7,0,0,0,0,3,524,54,0,0,0
8,0,0,0,0,1,523,52,0,0,0
9,0,0,0,0,0,524,52,0,0,0
10,0,0,0,0,0,526,53,0,0,0
11,0,0,0,0,3,526,51,0,0,0
12,0,0,0,0,0,523,53,0,0,0
13,0,0,0,0,0,518,52,0,0,0
14,0,0,0,0,0,515,51,0,0,0
15,0,0,0,0,3,513,53,0,0,0
0,0,0,0,0,0,515,53,0,0,0
1,0,0,0,0,0,515,53,0,0,0
2,0,0,0,0,0,516,51,0,0,0
3,0,0,0,0,3,518,53,0,0,0
4,0,0,0,0,0,516,54,0,0,0
5,0,0,0,0,0,514,53,0,0,0
6,0,0,0,0,0,515,54,0,0,0
7,0,0,0,0,3,513,53,0,0,0
8,0,0,0,0,0,515,52,0,0,0
9,0,0,0,0,0,512,52,0,0,0
10,0,0,0,0,0,513,51,0,0,0
11,0,0,0,0,3,509,51,0,0,0
12,0,0,0,0,0,510,51,0,0,0
13,0,0,0,0,0,505,51,0,0,0
14,0,0,0,0,0,507,52,0,0,0
15,0,0,0,0,1,502,50,0,0,0
0,0,0,0,0,1,500,51,0,0,0
1,0,0,0,0,0,498,51,0,0,0
2,0,0,0,0,0,500,51,0,0,0
3,0,0,0,0,3,513,51,0,0,0
4,0,0,0,0,0,523,51,0,0,0
5,0,0,0,0,0,525,52,0,0,0
6,0,0,0,0,0,526,51,0,0,0
7,0,0,0,0,3,526,53,0,0,0
8,0,0,0,0,0,526,51,0,0,0
9,0,0,0,0,0,524,51,0,0,0
10,0,0,0,0,0,526,51,0,0,0
11,0,0,0,0,3,518,53,0,0,0
12,0,0,0,0,0,452,51,0,0,0
13,0,0,0,0,0,424,52,0,0,0
14,0,0,0,0,0,508,53,0,0,0
15,0,0,0,0,3,571,51,0,0,0
0,0,0,0,0,0,501,50,0,0,0
1,0,0,0,0,0,501,51,0,0,0
2,0,0,0,0,0,518,53,0,0,0
3,0,0,0,0,3,518,53,0,0,0
4,0,0,0,0,0,517,50,0,0,0
5,0,0,0,0,0,515,53,0,0,0
6,0,0,0,0,0,514,52,0,0,0
7,0,0,0,0,3,510,50,0,0,0
8,0,0,0,0,0,508,53,0,0,0
9,0,0,0,0,0,511,51,0,0,0
10,0,0,0,0,0,510,51,0,0,0
11,0,0,0,0,3,509,51,0,0,0
12,0,0,0,0,0,506,52,0,0,0
13,0,0,0,0,0,502,51,0,0,0
14,0,0,0,0,0,502,51,0,0,0
15,0,0,0,0,3,506,50,0,0,0
0,0,0,0,0,0,508,50,0,0,0
1,0,0,0,0,0,499,52,0,0,0
2,0,0,0,0,0,493,52,0,0,0
3,0,0,0,0,3,488,52,0,0,0
4,0,0,0,0,1,491,51,0,0,0
5,0,0,0,0,0,493,52,0,0,0
6,0,0,0,0,0,501,53,0,0,0
7,0,0,0,0,3,507,53,0,0,0
8,0,0,0,0,0,515,53,0,0,0
9,0,0,0,0,0,517,53,0,0,0
10,0,0,0,0,0,520,53,0,0,0
11,0,0,0,0,1,521,52,0,0,0
12,0,0,0,0,0,525,52,0,0,0
13,0,0,0,0,0,519,52,0,0,0
14,0,0,0,0,0,521,52,0,0,0
15,0,0,0,0,3,515,51,0,0,0
0,0,0,0,0,0,514,53,0,0,0
1,0,0,0,0,0,511,52,0,0,0
2,0,0,0,0,0,512,51,0,0,0
3,0,0,0,0,3,513,52,0,0,0
4,0,0,0,0,0,513,51,0,0,0
5,0,0,0,0,0,510,52,0,0,0
6,0,0,0,0,0,511,51,0,0,0
7,0,0,0,0,3,511,51,0,0,0
8,0,0,0,0,0,514,51,0,0,0
9,0,0,0,0,0,514,52,0,0,0
10,0,0,0,0,0,512,53,0,0,0
11,0,0,0,0,3,510,51,0,0,0
12,0,0,0,0,0,511,52,0,0,0
13,0,0,0,0,0,512,50,0,0,0
14,0,0,0,0,0,513,53,0,0,0
15,0,0,0,0,3,510,53,0,0,0
0,0,0,0,0,0,511,51,0,0,0
1,0,0,0,0,0,508,53,0,0,0
2,0,0,0,0,0,505,53,0,0,0
3,0,0,0,0,3,501,52,0,0,0
4,0,0,0,0,0,501,52,0,0,0
5,0,0,0,0,0,497,50,0,0,0
6,0,0,0,0,0,499,52,0,0,0
7,0,0,0,0,3,503,52,0,0,0
8,0,0,0,0,0,512,50,0,0,0
9,0,0,0,0,0,523,52,0,0,0
10,0,0,0,0,0,533,53,0,0,0
11,0,0,0,0,3,534,53,0,0,0
12,0,0,0,0,0,534,52,0,0,0
13,0,0,0,0,0,526,51,0,0,0
14,0,0,0,0,0,524,53,0,0,0
15,0,0,0,0,3,521,52,0,0,0
0,0,0,0,0,0,527,50,0,0,0
1,0,0,0,0,0,519,51,0,0,0
2,0,0,0,0,0,452,51,0,0,0
3,0,0,0,0,3,432,51,0,0,0
4,0,0,0,0,0,520,50,0,0,0
5,0,0,0,0,0,578,52,0,0,0
6,0,0,0,0,0,510,51,0,0,0
7,0,0,0,0,1,509,51,0,0,0
8,0,0,0,0,0,524,51,0,0,0
9,0,0,0,0,0,525,51,0,0,0
10,0,0,0,0,0,527,52,0,0,0
11,0,0,0,0,3,520,51,0,0,0
12,0,0,0,0,0,517,51,0,0,0
13,0,0,0,0,0,518,52,0,0,0
14,0,0,0,0,0,518,50,0,0,0
15,0,0,0,0,3,515,51,0,0,0
0,0,0,0,0,0,513,51,0,0,0
1,0,0,0,0,0,508,51,0,0,0
2,0,0,0,0,0,504,51,0,0,0
3,0,0,0,0,3,496,50,0,0,0
4,0,0,0,0,0,498,52,0,0,0
5,0,0,0,0,0,494,52,0,0,0
6,0,0,0,0,0,490,52,0,0,0
7,0,0,0,0,3,487,52,0,0,0
8,0,0,0,0,0,484,52,0,0,0
9,0,0,0,0,0,483,51,0,0,0
10,0,0,0,0,0,482,52,0,0,0
11,0,0,0,0,0,483,52,0,0,0
12,0,0,0,0,0,490,53,0,0,0
13,0,0,0,0,0,499,52,0,0,0
14,0,0,0,0,0,511,52,0,0,0
15,0,0,0,0,3,519,52,0,0,0
0,0,0,0,0,0,529,52,0,0,0
1,0,0,0,0,0,527,52,0,0,0
2,0,0,0,0,0,524,52,0,0,0
3,0,0,0,0,3,521,52,0,0,0
4,0,0,0,0,0,521,52,0,0,0
5,0,0,0,0,0,521,52,0,0,0
6,0,0,0,0,0,521,52,0,0,0
7,0,0,0,0,3,516,52,0,0,0
8,0,0,0,0,0,514,52,0,0,0
9,0,0,0,0,0,509,52,0,0,0
10,0,0,0,0,0,510,52,0,0,0
11,0,0,0,0,3,510,50,0,0,0
12,0,0,0,0,0,511,50,0,0,0
13,0,0,0,0,0,510,51,0,0,0
14,0,0,0,0,0,510,52,0,0,0
15,0,0,0,0,3,506,52,0,0,0
0,0,0,0,0,0,504,50,0,0,0
1,0,0,0,0,0,502,51,0,0,0
2,0,0,0,0,0,503,51,0,0,0
3,0,0,0,0,3,504,51,0,0,0
4,0,0,0,0,0,506,52,0,0,0
5,0,0,0,0,0,504,51,0,0,0
6,0,0,0,0,0,505,50,0,0,0
7,0,0,0,0,3,504,50,0,0,0
8,0,0,0,0,0,503,50,0,0,0
9,0,0,0,0,0,500,50,0,0,0
10,0,0,0,0,0,500,51,0,0,0
11,0,0,0,0,3,494,50,0,0,0
12,0,0,0,0,0,502,50,0,0,0
13,0,0,0,0,0,504,50,0,0,0
14,0,0,0,0,0,505,51,0,0,0
15,0,0,0,0,3,515,51,0,0,0
0,0,0,0,0,0,521,51,0,0,0
1,0,0,0,0,0,518,51,0,0,0
2,0,0,0,0,0,516,51,0,0,0
3,0,0,0,0,3,515,52,0,0,0
4,0,0,0,0,0,518,52,0,0,0
5,0,0,0,0,0,520,51,0,0,0
6,0,0,0,0,0,524,52,0,0,0
7,0,0,0,0,0,505,51,0,0,0
8,0,0,0,0,0,439,51,0,0,0
9,0,0,0,0,0,464,51,0,0,0
10,0,0,0,0,0,553,50,0,0,0
11,0,0,0,0,3,566,49,0,0,0
12,0,0,0,0,0,510,51,0,0,0
13,0,0,0,0,0,513,50,0,0,0
14,0,0,0,0,0,523,51,0,0,0
15,0,0,0,0,3,522,52,0,0,0
0,0,0,0,0,0,518,52,0,0,0
1,0,0,0,0,0,518,52,0,0,0
2,0,0,0,0,0,518,52,0,0,0
3,0,0,0,0,3,514,51,0,0,0
4,0,0,0,0,0,515,51,0,0,0
5,0,0,0,0,0,515,50,0,0,0
6,0,0,0,0,0,513,50,0,0,0
7,0,0,0,0,3,508,49,0,0,0
8,0,0,0,0,0,509,50,0,0,0
9,0,0,0,0,0,510,49,0,0,0
10,0,0,0,0,0,505,49,0,0,0
11,0,0,0,0,3,500,50,0,0,0
12,0,0,0,0,0,497,50,0,0,0
13,0,0,0,0,0,491,50,0,0,0
14,0,0,0,0,0,492,50,0,0,0
15,0,0,0,0,3,488,50,0,0,0
0,0,0,0,0,0,491,51,0,0,0
1,0,0,0,0,0,494,50,0,0,0
2,0,0,0,0,0,500,50,0,0,0
3,0,0,0,0,3,504,50,0,0,0
4,0,0,0,0,0,517,49,0,0,0
5,0,0,0,0,0,521,49,0,0,0
6,0,0,0,0,0,526,51,0,0,0
7,0,0,0,0,3,527,52,0,0,0
8,0,0,0,0,0,527,51,0,0,0
9,0,0,0,0,0,522,51,0,0,0
10,0,0,0,0,0,519,52,0,0,0
11,0,0,0,0,3,518,51,0,0,0
12,0,0,0,0,0,520,51,0,0,0
13,0,0,0,0,0,519,51,0,0,0
14,0,0,0,0,0,519,51,0,0,0
15,0,0,0,0,3,515,50,0,0,0
0,0,0,0,0,0,516,50,0,0,0
1,0,0,0,0,0,518,49,0,0,0
2,0,0,0,0,0,516,49,0,0,0
3,0,0,0,0,0,513,49,0,0,0
4,0,0,0,0,0,509,51,0,0,0
5,0,0,0,0,0,509,52,0,0,0
6,0,0,0,0,0,508,52,0,0,0
7,0,0,0,0,3,508,51,0,0,0
8,0,0,0,0,0,510,52,0,0,0
9,0,0,0,0,0,507,51,0,0,0
10,0,0,0,0,0,509,51,0,0,0
11,0,0,0,0,3,509,51,0,0,0
12,0,0,0,0,0,506,51,0,0,0
13,0,0,0,0,0,505,51,0,0,0
14,0,0,0,0,0,502,50,0,0,0
15,0,0,0,0,3,499,49,0,0,0
0,0,0,0,0,0,505,50,0,0,0
1,0,0,0,0,0,506,50,0,0,0
2,0,0,0,0,0,511,51,0,0,0
3,0,0,0,0,3,517,51,0,0,0
4,0,0,0,0,0,522,51,0,0,0
5,0,0,0,0,0,520,51,0,0,0
6,0,0,0,0,0,519,51,0,0,0
7,0,0,0,0,3,516,51,0,0,0
8,0,0,0,0,0,513,51,0,0,0
9,0,0,0,0,0,513,51,0,0,0
10,0,0,0,0,0,518,51,0,0,0
11,0,0,0,0,3,489,50,0,0,0
12,0,0,0,0,0,435,51,0,0,0
13,0,0,0,0,0,472,51,0,0,0
14,0,0,0,0,0,557,51,0,0,0
15,0,0,0,0,3,541,51,0,0,0
0,0,0,0,0,0,498,51,0,0,0
1,0,0,0,0,0,511,49,0,0,0
2,0,0,0,0,0,517,49,0,0,0
3,0,0,0,0,3,513,49,0,0,0
4,0,0,0,0,0,515,50,0,0,0
5,0,0,0,0,0,515,50,0,0,0
6,0,0,0,0,0,515,49,0,0,0
7,0,0,0,0,3,513,50,0,0,0
8,0,0,0,0,0,513,51,0,0,0
9,0,0,0,0,0,510,51,0,0,0
10,0,0,0,0,0,510,50,0,0,0
11,0,0,0,0,3,507,49,0,0,0
12,0,0,0,0,0,507,49,0,0,0
13,0,0,0,0,0,506,49,0,0,0
14,0,0,0,0,0,506,50,0,0,0
15,0,0,0,0,1,504,51,0,0,0
0,0,0,0,0,0,499,51,0,0,0
1,0,0,0,0,0,493,51,0,0,0
2,0,0,0,0,0,493,49,0,0,0
3,0,0,0,0,3,491,50,0,0,0
4,0,0,0,0,0,494,51,0,0,0
5,0,0,0,0,0,495,51,0,0,0
6,0,0,0,0,0,505,50,0,0,0
7,0,0,0,0,3,511,51,0,0,0
8,0,0,0,0,0,524,51,0,0,0
9,0,0,0,0,0,532,51,0,0,0
10,0,0,0,0,0,536,49,0,0,0
11,0,0,0,0,3,532,51,0,0,0
12,0,0,0,0,0,530,50,0,0,0
13,0,0,0,0,0,527,51,0,0,0
14,0,0,0,0,0,524,51,0,0,0
15,0,0,0,0,3,522,51,0,0,0
0,0,0,0,0,0,519,51,0,0,0
1,0,0,0,0,0,515,51,0,0,0
2,0,0,0,0,0,512,50,0,0,0
3,0,0,0,0,3,508,50,0,0,0
4,0,0,0,0,0,510,51,0,0,0
5,0,0,0,0,0,508,48,0,0,0
6,0,0,0,0,0,507,48,0,0,0
7,0,0,0,0,3,503,48,0,0,0
8,0,0,0,0,0,505,50,0,0,0
9,0,0,0,0,0,508,51,0,0,0
10,0,0,0,0,0,508,50,0,0,0
11,0,0,0,0,3,510,48,0,0,0
12,0,0,0,0,0,512,50,0,0,0
13,0,0,0,0,0,508,51,0,0,0
14,0,0,0,0,0,506,51,0,0,0
15,0,0,0,0,3,503,49,0,0,0
0,0,0,0,0,0,503,51,0,0,0
1,0,0,0,0,0,500,48,0,0,0
2,0,0,0,0,0,500,49,0,0,0
3,0,0,0,0,3,491,51,0,0,0
4,0,0,0,0,0,493,50,0,0,0
5,0,0,0,0,0,496,48,0,0,0
6,0,0,0,0,0,500,49,0,0,0
7,0,0,0,0,3,509,50,0,0,0
8,0,0,0,0,0,518,48,0,0,0
9,0,0,0,0,0,519,51,0,0,0
10,0,0,0,0,0,523,50,0,0,0
11,0,0,0,0,0,518,49,0,0,0
12,0,0,0,0,0,519,50,0,0,0
13,0,0,0,0,0,523,50,0,0,0
14,0,0,0,0,0,527,48,0,0,0
15,0,0,0,0,3,506,49,0,0,0
0,0,0,0,0,0,444,51,0,0,0
1,0,0,0,0,0,445,48,0,0,0
2,0,0,0,0,0,531,50,0,0,0
3,0,0,0,0,3,569,50,0,0,0
4,0,0,0,0,0,508,49,0,0,0
5,0,0,0,0,0,512,49,0,0,0
6,0,0,0,0,0,521,50,0,0,0
7,0,0,0,0,3,519,50,0,0,0
8,0,0,0,0,0,517,48,0,0,0
9,0,0,0,0,0,512,51,0,0,0
10,0,0,0,0,0,510,50,0,0,0
11,0,0,0,0,3,510,49,0,0,0
12,0,0,0,0,0,510,49,0,0,0
13,0,0,0,0,0,513,48,0,0,0
14,0,0,0,0,0,515,49,0,0,0
15,0,0,0,0,3,508,50,0,0,0
0,0,0,0,0,0,501,50,0,0,0
1,0,0,0,0,0,497,48,0,0,0
2,0,0,0,0,0,499,50,0,0,0
3,0,0,0,0,3,495,48,0,0,0
4,0,0,0,0,0,490,49,0,0,0
5,0,0,0,0,0,486,50,0,0,0
6,0,0,0,0,0,482,49,0,0,0
7,0,0,0,0,3,479,50,0,0,0
8,0,0,0,0,0,483,48,0,0,0
9,0,0,0,0,0,484,49,0,0,0
10,0,0,0,0,0,496,51,0,0,0
11,0,0,0,0,3,502,49,0,0,0
12,0,0,0,0,0,514,48,0,0,0
13,0,0,0,0,0,516,49,0,0,0
14,0,0,0,0,0,523,50,0,0,0
15,0,0,0,0,3,524,50,0,0,0
0,0,0,0,0,0,526,48,0,0,0
1,0,0,0,0,0,524,49,0,0,0
2,0,0,0,0,0,524,51,0,0,0
3,0,0,0,0,3,521,50,0,0,0
4,0,0,0,0,0,521,48,0,0,0
5,0,0,0,0,0,518,50,0,0,0
6,0,0,0,0,0,518,50,0,0,0
7,0,0,0,0,0,515,50,0,0,0
8,0,0,0,0,0,511,50,0,0,0
9,0,0,0,0,0,509,48,0,0,0
10,0,0,0,0,0,512,48,0,0,0
11,0,0,0,0,3,512,49,0,0,0
12,0,0,0,0,0,515,51,0,0,0
13,0,0,0,0,0,516,50,0,0,0
14,0,0,0,0,0,513,49,0,0,0
15,0,0,0,0,3,511,48,0,0,0
0,0,0,0,0,0,516,50,0,0,0
1,0,0,0,0,0,516,48,0,0,0
2,0,0,0,0,0,517,48,0,0,0
3,0,0,0,0,3,517,49,0,0,0
4,0,0,0,0,0,519,50,0,0,0
5,0,0,0,0,0,516,50,0,0,0
6,0,0,0,0,0,515,50,0,0,0
7,0,0,0,0,3,510,48,0,0,0
8,0,0,0,0,0,506,48,0,0,0
9,0,0,0,0,0,499,48,0,0,0
10,0,0,0,0,0,503,48,0,0,0
11,0,0,0,0,3,502,48,0,0,0
12,0,0,0,0,0,512,49,0,0,0
13,0,0,0,0,0,518,49,0,0,0
14,0,0,0,0,0,519,50,0,0,0
15,0,0,0,0,3,514,50,0,0,0
0,0,0,0,0,0,514,50,0,0,0
1,0,0,0,0,0,513,50,0,0,0
2,0,0,0,0,0,516,51,0,0,0
3,0,0,0,0,3,518,50,0,0,0
4,0,0,0,0,0,508,50,0,0,0
5,0,0,0,0,0,440,50,0,0,0
6,0,0,0,0,0,428,50,0,0,0
7,0,0,0,0,3,513,49,0,0,0
8,0,0,0,0,0,572,47,0,0,0
9,0,0,0,0,0,502,49,0,0,0
10,0,0,0,0,0,508,49,0,0,0
11,0,0,0,0,3,520,50,0,0,0
12,0,0,0,0,0,520,48,0,0,0
13,0,0,0,0,0,517,49,0,0,0
14,0,0,0,0,0,517,50,0,0,0
15,0,0,0,0,3,514,48,0,0,0
0,0,0,0,0,0,513,48,0,0,0
1,0,0,0,0,0,512,49,0,0,0
2,0,0,0,0,0,511,50,0,0,0
3,0,0,0,0,0,511,50,0,0,0
4,0,0,0,0,0,507,47,0,0,0
5,0,0,0,0,0,502,48,0,0,0
6,0,0,0,0,0,501,49,0,0,0
7,0,0,0,0,3,498,50,0,0,0
8,0,0,0,0,0,497,49,0,0,0
9,0,0,0,0,0,491,49,0,0,0
10,0,0,0,0,0,487,48,0,0,0
11,0,0,0,0,3,481,48,0,0,0
12,0,0,0,0,0,482,47,0,0,0
13,0,0,0,0,0,487,48,0,0,0
14,0,0,0,0,0,491,49,0,0,0
15,0,0,0,0,3,499,49,0,0,0
0,0,0,0,0,0,508,49,0,0,0
1,0,0,0,0,0,517,48,0,0,0
2,0,0,0,0,0,524,48,0,0,0
3,0,0,0,0,3,523,48,0,0,0
4,0,0,0,0,0,528,49,0,0,0
5,0,0,0,0,0,525,49,0,0,0
6,0,0,0,0,0,527,48,0,0,0
7,0,0,0,0,0,524,47,0,0,0
8,0,0,0,0,0,519,47,0,0,0
9,0,0,0,0,0,519,48,0,0,0
10,0,0,0,0,0,523,50,0,0,0
11,0,0,0,0,3,519,49,0,0,0
12,0,0,0,0,0,520,48,0,0,0
13,0,0,0,0,0,519,48,0,0,0
14,0,0,0,0,0,520,50,0,0,0
15,0,0,0,0,3,517,47,0,0,0
0,0,0,0,0,0,515,48,0,0,0
1,0,0,0,0,0,513,49,0,0,0
2,0,0,0,0,0,514,47,0,0,0
3,0,0,0,0,3,510,47,0,0,0
4,0,0,0,0,0,505,49,0,0,0
5,0,0,0,0,0,503,49,0,0,0
6,0,0,0,0,0,505,50,0,0,0
7,0,0,0,0,3,501,49,0,0,0
8,0,0,0,0,0,503,50,0,0,0
9,0,0,0,0,0,501,49,0,0,0
10,0,0,0,0,0,504,49,0,0,0
11,0,0,0,0,3,497,49,0,0,0
12,0,0,0,0,0,496,49,0,0,0
13,0,0,0,0,0,494,50,0,0,0
14,0,0,0,0,0,492,50,0,0,0
15,0,0,0,0,3,497,49,0,0,0
0,0,0,0,0,0,498,50,0,0,0
1,0,0,0,0,0,502,50,0,0,0
2,0,0,0,0,0,514,50,0,0,0
3,0,0,0,0,3,524,50,0,0,0
4,0,0,0,0,0,524,48,0,0,0
5,0,0,0,0,0,523,49,0,0,0
6,0,0,0,0,0,518,47,0,0,0
7,0,0,0,0,3,518,49,0,0,0
8,0,0,0,0,0,524,50,0,0,0
9,0,0,0,0,0,519,49,0,0,0
10,0,0,0,0,0,488,49,0,0,0
11,0,0,0,0,3,434,48,0,0,0
12,0,0,0,0,0,485,48,0,0,0
13,0,0,0,0,0,583,47,0,0,0
14,0,0,0,0,0,546,49,0,0,0
15,0,0,0,0,3,508,48,0,0,0
0,0,0,0,0,0,524,49,0,0,0
1,0,0,0,0,0,526,50,0,0,0
2,0,0,0,0,0,529,49,0,0,0
3,0,0,0,0,0,527,49,0,0,0
4,0,0,0,0,0,524,48,0,0,0
5,0,0,0,0,0,521,49,0,0,0
6,0,0,0,0,0,518,49,0,0,0
7,0,0,0,0,3,514,49,0,0,0
8,0,0,0,0,0,513,47,0,0,0
9,0,0,0,0,0,508,47,0,0,0
10,0,0,0,0,0,509,47,0,0,0
11,0,0,0,0,3,510,47,0,0,0
12,0,0,0,0,0,503,49,0,0,0
13,0,0,0,0,0,497,49,0,0,0
14,0,0,0,0,0,492,49,0,0,0
15,0,0,0,0,3,485,49,0,0,0
0,0,0,0,0,0,484,48,0,0,0
1,0,0,0,0,0,481,47,0,0,0
2,0,0,0,0,0,480,49,0,0,0
3,0,0,0,0,3,483,48,0,0,0
4,0,0,0,0,0,491,49,0,0,0
5,0,0,0,0,0,497,50,0,0,0
6,0,0,0,0,0,510,49,0,0,0
7,0,0,0,0,3,514,49,0,0,0
8,0,0,0,0,0,517,47,0,0,0
9,0,0,0,0,0,521,48,0,0,0
10,0,0,0,0,0,521,50,0,0,0
11,0,0,0,0,3,517,49,0,0,0
12,0,0,0,0,0,515,49,0,0,0
13,0,0,0,0,0,506,49,0,0,0
14,0,0,0,0,0,509,49,0,0,0
15,0,0,0,0,3,508,48,0,0,0
0,0,0,0,0,0,509,49,0,0,0
1,0,0,0,0,0,506,49,0,0,0
2,0,0,0,0,0,505,49,0,0,0
3,0,0,0,0,3,506,49,0,0,0
4,0,0,0,0,0,508,47,0,0,0
5,0,0,0,0,0,512,47,0,0,0
6,0,0,0,0,0,511,47,0,0,0
7,0,0,0,0,3,510,49,0,0,0
8,0,0,0,0,0,510,50,0,0,0
9,0,0,0,0,0,510,50,0,0,0
10,0,0,0,0,0,511,49,0,0,0
11,0,0,0,0,3,510,49,0,0,0
12,0,0,0,0,0,510,49,0,0,0
13,0,0,0,0,0,508,48,0,0,0
14,0,0,0,0,0,505,49,0,0,0
15,0,0,0,0,0,506,49,0,0,0
0,0,0,0,0,0,503,47,0,0,0
1,0,0,0,0,0,494,47,0,0,0
2,0,0,0,0,0,499,47,0,0,0
3,0,0,0,0,3,500,49,0,0,0
4,0,0,0,0,0,503,49,0,0,0
5,0,0,0,0,0,513,50,0,0,0
6,0,0,0,0,0,524,49,0,0,0
7,0,0,0,0,3,519,48,0,0,0
8,0,0,0,0,0,518,47,0,0,0
9,0,0,0,0,0,516,48,0,0,0
10,0,0,0,0,0,518,50,0,0,0
11,0,0,0,0,3,516,48,0,0,0
12,0,0,0,0,0,514,47,0,0,0
13,0,0,0,0,0,493,48,0,0,0
14,0,0,0,0,0,439,47,0,0,0
15,0,0,0,0,3,470,48,0,0,0
0,0,0,0,0,0,554,49,0,0,0
1,0,0,0,0,0,548,50,0,0,0
2,0,0,0,0,0,499,50,0,0,0
3,0,0,0,0,3,508,48,0,0,0
4,0,0,0,0,0,514,48,0,0,0
5,0,0,0,0,0,512,48,0,0,0
6,0,0,0,0,0,511,50,0,0,0
7,0,0,0,0,3,506,50,0,0,0
8,0,0,0,0,0,508,48,0,0,0
9,0,0,0,0,0,508,47,0,0,0
10,0,0,0,0,0,506,49,0,0,0
11,0,0,0,0,3,501,49,0,0,0
12,0,0,0,0,0,499,50,0,0,0
13,0,0,0,0,0,495,49,0,0,0
14,0,0,0,0,0,494,49,0,0,0
15,0,0,0,0,3,491,47,0,0,0
0,0,0,0,0,0,491,49,0,0,0
1,0,0,0,0,0,485,50,0,0,0
2,0,0,0,0,0,483,50,0,0,0
3,0,0,0,0,3,486,48,0,0,0
4,0,0,0,0,0,481,47,0,0,0
5,0,0,0,0,0,483,48,0,0,0
6,0,0,0,0,0,492,49,0,0,0
7,0,0,0,0,3,494,49,0,0,0
8,0,0,0,0,0,504,49,0,0,0
9,0,0,0,0,0,508,49,0,0,0
10,0,0,0,0,0,518,50,0,0,0
11,0,0,0,0,0,521,49,0,0,0
12,0,0,0,0,0,525,47,0,0,0
13,0,0,0,0,0,522,49,0,0,0
14,0,0,0,0,0,523,48,0,0,0
15,0,0,0,0,3,519,49,0,0,0
0,0,0,0,0,0,515,50,0,0,0
1,0,0,0,0,0,513,48,0,0,0
2,0,0,0,0,0,517,50,0,0,0
3,0,0,0,0,3,512,49,0,0,0
4,0,0,0,0,0,510,48,0,0,0
5,0,0,0,0,0,508,48,0,0,0
6,0,0,0,0,0,512,50,0,0,0
7,0,0,0,0,3,512,50,0,0,0
8,0,0,0,0,0,514,49,0,0,0
9,0,0,0,0,0,512,50,0,0,0
10,0,0,0,0,0,513,50,0,0,0
11,0,0,0,0,3,513,49,0,0,0
12,0,0,0,0,0,514,49,0,0,0
13,0,0,0,0,0,511,50,0,0,0
14,0,0,0,0,0,508,50,0,0,0
15,0,0,0,0,3,506,50,0,0,0
0,0,0,0,0,0,502,50,0,0,0
1,0,0,0,0,0,499,51,0,0,0
2,0,0,0,0,0,502,51,0,0,0
3,0,0,0,0,3,494,51,0,0,0
4,0,0,0,0,0,501,51,0,0,0
5,0,0,0,0,0,502,50,0,0,0
6,0,0,0,0,0,506,51,0,0,0
7,0,0,0,0,3,519,51,0,0,0
8,0,0,0,0,0,526,51,0,0,0
9,0,0,0,0,0,522,50,0,0,0
10,0,0,0,0,0,521,49,0,0,0
11,0,0,0,0,3,519,50,0,0,0
12,0,0,0,0,0,518,51,0,0,0
13,0,0,0,0,0,523,51,0,0,0
14,0,0,0,0,0,524,51,0,0,0
15,0,0,0,0,3,493,50,0,0,0
0,0,0,0,0,0,447,49,0,0,0
1,0,0,0,0,0,484,50,0,0,0
2,0,0,0,0,0,564,52,0,0,0
3,0,0,0,0,3,536,51,0,0,0
4,0,0,0,0,1,503,49,0,0,0
5,0,0,0,0,0,519,51,0,0,0
6,0,0,0,0,0,523,52,0,0,0
7,0,0,0,0,1,519,52,0,0,0
8,0,0,0,0,0,515,51,0,0,0
9,0,0,0,0,0,511,51,0,0,0
10,0,0,0,0,1,506,51,0,0,0
11,0,0,0,0,3,508,50,0,0,0
12,0,0,0,0,0,511,50,0,0,0
13,0,0,0,0,0,513,50,0,0,0
14,0,0,0,0,0,513,51,0,0,0
15,0,0,0,0,3,510,51,0,0,0
0,0,0,0,0,0,512,50,0,0,0
1,0,0,0,0,0,514,51,0,0,0
2,0,0,0,0,0,511,51,0,0,0
3,0,0,0,0,3,506,51,0,0,0
4,0,0,0,0,0,504,52,0,0,0
5,0,0,0,0,0,500,53,0,0,0
6,0,0,0,0,1,502,52,0,0,0
7,0,0,0,0,3,505,51,0,0,0
8,0,0,0,0,0,507,52,0,0,0
9,0,0,0,0,0,513,51,0,0,0
10,0,0,0,0,0,524,51,0,0,0
11,0,0,0,0,3,526,54,0,0,0
12,0,0,0,0,1,536,52,0,0,0
13,0,0,0,0,0,533,52,0,0,0
14,0,0,0,0,0,533,51,0,0,0
15,0,0,0,0,3,535,52,0,0,0
0,0,0,0,0,0,534,54,0,0,0
1,0,0,0,0,0,531,54,0,0,0
2,0,0,0,0,1,526,54,0,0,0
3,0,0,0,0,3,517,54,0,0,0
4,0,0,0,0,0,515,54,0,0,0
5,0,0,0,0,0,511,51,0,0,0
6,0,0,0,0,0,512,53,0,0,0
7,0,0,0,0,3,513,54,0,0,0
8,0,0,0,0,1,511,54,0,0,0
9,0,0,0,0,0,509,54,0,0,0
10,0,0,0,0,0,511,53,0,0,0
11,0,0,0,0,3,514,51,0,0,0
12,0,0,0,0,0,514,52,0,0,0
13,0,0,0,0,0,512,52,0,0,0
14,0,0,0,0,1,508,52,0,0,0
15,0,0,0,0,3,509,53,0,0,0
0,0,0,0,0,0,509,53,0,0,0
1,0,0,0,0,0,504,53,0,0,0
2,0,0,0,0,0,504,52,0,0,0
3,0,0,0,0,0,504,53,0,0,0
4,0,0,0,0,1,495,52,0,0,0
5,0,0,0,0,0,502,52,0,0,0
6,0,0,0,0,0,507,53,0,0,0
7,0,0,0,0,3,507,52,0,0,0
8,0,0,0,0,0,512,52,0,0,0
9,0,0,0,0,0,512,54,0,0,0
10,0,0,0,0,1,512,54,0,0,0
11,0,0,0,0,3,513,55,0,0,0
12,0,0,0,0,0,518,55,0,0,0
13,0,0,0,0,0,515,54,0,0,0
14,0,0,0,0,0,518,55,0,0,0
15,0,0,0,0,3,514,54,0,0,0
0,0,0,0,0,1,487,53,0,0,0
1,0,0,0,0,0,446,53,0,0,0
2,0,0,0,0,0,477,54,0,0,0
3,0,0,0,0,3,557,55,0,0,0
4,0,0,0,0,0,533,54,0,0,0
5,0,0,0,0,0,506,55,0,0,0
6,0,0,0,0,1,516,55,0,0,0
7,0,0,0,0,3,520,55,0,0,0
8,0,0,0,0,0,516,55,0,0,0
9,0,0,0,0,0,512,55,0,0,0
10,0,0,0,0,0,512,55,0,0,0
11,0,0,0,0,3,510,53,0,0,0
12,0,0,0,0,1,512,55,0,0,0
13,0,0,0,0,0,513,52,0,0,0
14,0,0,0,0,0,511,55,0,0,0
15,0,0,0,0,3,511,55,0,0,0
0,0,0,0,0,0,509,55,0,0,0
1,0,0,0,0,0,508,53,0,0,0
2,0,0,0,0,0,510,53,0,0,0
3,0,0,0,0,3,507,55,0,0,0
4,0,0,0,0,0,505,55,0,0,0
5,0,0,0,0,0,496,53,0,0,0
6,0,0,0,0,0,493,56,0,0,0
7,0,0,0,0,3,489,55,0,0,0
8,0,0,0,0,1,491,54,0,0,0
9,0,0,0,0,0,487,55,0,0,0
10,0,0,0,0,0,496,55,0,0,0
11,0,0,0,0,3,509,54,0,0,0
12,0,0,0,0,0,522,53,0,0,0
13,0,0,0,0,0,528,56,0,0,0
14,0,0,0,0,1,528,55,0,0,0
15,0,0,0,0,0,526,53,0,0,0
0,0,0,0,0,0,531,55,0,0,0
1,0,0,0,0,0,534,55,0,0,0
2,0,0,0,0,0,532,54,0,0,0
3,0,0,0,0,3,526,56,0,0,0
4,0,0,0,0,1,522,53,0,0,0
5,0,0,0,0,0,521,54,0,0,0
6,0,0,0,0,0,519,55,0,0,0
7,0,0,0,0,3,516,56,0,0,0
8,0,0,0,0,0,515,56,0,0,0
9,0,0,0,0,0,515,56,0,0,0
10,0,0,0,0,1,515,56,0,0,0
11,0,0,0,0,3,517,53,0,0,0
12,0,0,0,0,0,517,56,0,0,0
13,0,0,0,0,0,518,56,0,0,0
14,0,0,0,0,0,519,56,0,0,0
15,0,0,0,0,3,520,54,0,0,0
0,0,0,0,0,1,520,54,0,0,0
1,0,0,0,0,0,518,56,0,0,0
2,0,0,0,0,0,514,55,0,0,0
3,0,0,0,0,1,514,56,0,0,0
4,0,0,0,0,0,509,56,0,0,0
5,0,0,0,0,0,502,56,0,0,0
6,0,0,0,0,1,505,55,0,0,0
7,0,0,0,0,3,502,56,0,0,0
8,0,0,0,0,0,510,55,0,0,0
9,0,0,0,0,0,516,54,0,0,0
10,0,0,0,0,0,524,57,0,0,0
11,0,0,0,0,3,527,54,0,0,0
12,0,0,0,0,0,524,54,0,0,0
13,0,0,0,0,0,521,56,0,0,0
14,0,0,0,0,0,524,55,0,0,0
15,0,0,0,0,3,528,56,0,0,0
0,0,0,0,0,0,529,56,0,0,0
1,0,0,0,0,0,475,54,0,0,0
2,0,0,0,0,0,451,56,0,0,0
3,0,0,0,0,3,502,54,0,0,0
4,0,0,0,0,0,574,57,0,0,0
5,0,0,0,0,0,518,55,0,0,0
6,0,0,0,0,0,518,56,0,0,0
7,0,0,0,0,3,527,56,0,0,0
8,0,0,0,0,1,529,55,0,0,0
9,0,0,0,0,0,523,56,0,0,0
10,0,0,0,0,0,523,57,0,0,0
11,0,0,0,0,3,519,56,0,0,0
12,0,0,0,0,0,516,56,0,0,0
13,0,0,0,0,0,508,54,0,0,0
14,0,0,0,0,1,512,56,0,0,0
15,0,0,0,0,3,512,57,0,0,0
0,0,0,0,0,0,514,55,0,0,0
1,0,0,0,0,0,510,57,0,0,0
2,0,0,0,0,0,507,56,0,0,0
3,0,0,0,0,3,505,56,0,0,0
4,0,0,0,0,1,502,57,0,0,0
5,0,0,0,0,0,503,55,0,0,0
6,0,0,0,0,0,500,57,0,0,0
7,0,0,0,0,3,499,56,0,0,0
8,0,0,0,0,0,499,55,0,0,0
9,0,0,0,0,0,500,57,0,0,0
10,0,0,0,0,0,500,57,0,0,0
11,0,0,0,0,3,508,56,0,0,0
12,0,0,0,0,0,515,55,0,0,0
13,0,0,0,0,0,517,57,0,0,0
14,0,0,0,0,0,526,55,0,0,0
15,0,0,0,0,1,527,57,0,0,0
0,0,0,0,0,1,527,56,0,0,0
1,0,0,0,0,0,526,57,0,0,0
2,0,0,0,0,0,527,57,0,0,0
3,0,0,0,0,3,524,55,0,0,0
4,0,0,0,0,0,526,58,0,0,0
5,0,0,0,0,0,521,56,0,0,0
6,0,0,0,0,1,519,57,0,0,0
7,0,0,0,0,3,519,57,0,0,0
8,0,0,0,0,0,518,56,0,0,0
9,0,0,0,0,0,515,55,0,0,0
10,0,0,0,0,0,511,57,0,0,0
11,0,0,0,0,3,511,58,0,0,0
12,0,0,0,0,0,514,58,0,0,0
13,0,0,0,0,0,510,56,0,0,0
14,0,0,0,0,0,510,57,0,0,0
15,0,0,0,0,3,510,58,0,0,0
0,0,0,0,0,0,511,57,0,0,0
1,0,0,0,0,0,508,56,0,0,0
2,0,0,0,0,0,507,58,0,0,0
3,0,0,0,0,3,508,59,0,0,0
4,0,0,0,0,0,504,56,0,0,0
5,0,0,0,0,0,502,57,0,0,0
6,0,0,0,0,0,501,59,0,0,0
7,0,0,0,0,3,493,57,0,0,0
8,0,0,0,0,1,496,56,0,0,0
9,0,0,0,0,0,499,59,0,0,0
10,0,0,0,0,0,506,57,0,0,0
11,0,0,0,0,3,515,58,0,0,0
12,0,0,0,0,0,519,59,0,0,0
13,0,0,0,0,0,526,59,0,0,0
14,0,0,0,0,0,527,57,0,0,0
15,0,0,0,0,3,524,59,0,0,0
0,0,0,0,0,0,526,59,0,0,0
1,0,0,0,0,0,532,56,0,0,0
2,0,0,0,0,0,519,59,0,0,0
3,0,0,0,0,3,451,57,0,0,0
4,0,0,0,0,1,449,59,0,0,0
5,0,0,0,0,0,532,57,0,0,0
6,0,0,0,0,0,568,60,0,0,0
7,0,0,0,0,3,512,57,0,0,0
8,0,0,0,0,0,521,59,0,0,0
9,0,0,0,0,0,530,60,0,0,0
10,0,0,0,0,0,527,58,0,0,0
11,0,0,0,0,0,523,59,0,0,0
12,0,0,0,0,0,517,59,0,0,0
13,0,0,0,0,0,512,57,0,0,0
14,0,0,0,0,0,512,59,0,0,0
15,0,0,0,0,3,515,60,0,0,0
0,0,0,0,0,0,519,59,0,0,0
1,0,0,0,0,0,515,59,0,0,0
2,0,0,0,0,0,515,58,0,0,0
3,0,0,0,0,3,511,59,0,0,0
4,0,0,0,0,0,504,60,0,0,0
5,0,0,0,0,0,505,60,0,0,0
6,0,0,0,0,0,505,60,0,0,0
7,0,0,0,0,3,498,60,0,0,0
8,0,0,0,0,0,497,60,0,0,0
9,0,0,0,0,0,494,59,0,0,0
10,0,0,0,0,0,492,61,0,0,0
11,0,0,0,0,3,493,60,0,0,0
12,0,0,0,0,0,501,59,0,0,0
13,0,0,0,0,0,511,60,0,0,0
14,0,0,0,0,0,521,59,0,0,0
15,0,0,0,0,3,526,61,0,0,0
0,0,0,0,0,0,526,60,0,0,0
1,0,0,0,0,0,527,59,0,0,0
2,0,0,0,0,0,531,60,0,0,0
3,0,0,0,0,3,529,61,0,0,0
4,0,0,0,0,0,530,59,0,0,0
5,0,0,0,0,0,531,60,0,0,0
6,0,0,0,0,0,530,61,0,0,0
7,0,0,0,0,3,524,59,0,0,0
8,0,0,0,0,0,521,61,0,0,0
9,0,0,0,0,0,518,59,0,0,0
10,0,0,0,0,0,515,61,0,0,0
11,0,0,0,0,3,510,60,0,0,0
12,0,0,0,0,0,508,60,0,0,0
13,0,0,0,0,0,506,60,0,0,0
14,0,0,0,0,0,510,61,0,0,0
15,0,0,0,0,3,506,60,0,0,0
0,0,0,0,0,0,505,59,0,0,0
1,0,0,0,0,0,503,61,0,0,0
2,0,0,0,0,0,502,62,0,0,0
3,0,0,0,0,3,501,59,0,0,0
4,0,0,0,0,1,503,62,0,0,0
5,0,0,0,0,0,504,59,0,0,0
6,0,0,0,0,0,508,62,0,0,0
7,0,0,0,0,1,507,61,0,0,0
8,0,0,0,0,0,509,60,0,0,0
9,0,0,0,0,0,503,60,0,0,0
10,0,0,0,0,1,504,60,0,0,0
11,0,0,0,0,3,499,62,0,0,0
12,0,0,0,0,0,496,61,0,0,0
13,0,0,0,0,0,499,60,0,0,0
14,0,0,0,0,0,504,63,0,0,0
15,0,0,0,0,3,508,60,0,0,0
0,0,0,0,0,0,516,61,0,0,0
1,0,0,0,0,0,519,63,0,0,0
2,0,0,0,0,0,521,60,0,0,0
3,0,0,0,0,3,523,62,0,0,0
4,0,0,0,0,0,524,63,0,0,0
5,0,0,0,0,0,524,61,0,0,0
6,0,0,0,0,0,532,62,0,0,0
7,0,0,0,0,3,515,61,0,0,0
8,0,0,0,0,0,449,63,0,0,0
9,0,0,0,0,0,448,62,0,0,0
10,0,0,0,0,0,532,62,0,0,0
11,0,0,0,0,3,558,63,0,0,0
12,0,0,0,0,0,503,63,0,0,0
13,0,0,0,0,0,516,63,0,0,0
14,0,0,0,0,0,525,61,0,0,0
15,0,0,0,0,3,523,63,0,0,0
0,0,0,0,0,0,519,61,0,0,0
1,0,0,0,0,0,511,63,0,0,0
2,0,0,0,0,0,507,63,0,0,0
3,0,0,0,0,3,505,61,0,0,0
4,0,0,0,0,0,510,63,0,0,0
5,0,0,0,0,0,509,62,0,0,0
6,0,0,0,0,0,510,62,0,0,0
7,0,0,0,0,3,506,63,0,0,0
8,0,0,0,0,0,507,63,0,0,0
9,0,0,0,0,0,503,64,0,0,0
10,0,0,0,0,0,503,62,0,0,0
11,0,0,0,0,3,500,63,0,0,0
12,0,0,0,0,0,497,62,0,0,0
13,0,0,0,0,0,493,64,0,0,0
14,0,0,0,0,0,491,63,0,0,0
15,0,0,0,0,3,491,63,0,0,0
0,0,0,0,0,0,494,64,0,0,0
1,0,0,0,0,0,498,64,0,0,0
2,0,0,0,0,0,508,62,0,0,0
3,0,0,0,0,1,519,64,0,0,0
4,0,0,0,0,0,527,64,0,0,0
5,0,0,0,0,0,530,63,0,0,0
6,0,0,0,0,0,536,64,0,0,0
7,0,0,0,0,3,534,64,0,0,0
8,0,0,0,0,0,529,64,0,0,0
9,0,0,0,0,0,527,63,0,0,0
10,0,0,0,0,0,524,64,0,0,0
11,0,0,0,0,3,523,63,0,0,0
12,0,0,0,0,0,521,63,0,0,0
13,0,0,0,0,0,519,64,0,0,0
14,0,0,0,0,0,518,63,0,0,0
15,0,0,0,0,3,516,65,0,0,0
0,0,0,0,0,0,515,62,0,0,0
1,0,0,0,0,0,511,65,0,0,0
2,0,0,0,0,0,514,63,0,0,0
3,0,0,0,0,3,515,65,0,0,0
4,0,0,0,0,0,515,63,0,0,0
5,0,0,0,0,0,517,65,0,0,0
6,0,0,0,0,0,519,63,0,0,0
7,0,0,0,0,3,519,64,0,0,0
8,0,0,0,0,0,523,65,0,0,0
9,0,0,0,0,0,517,63,0,0,0
10,0,0,0,0,0,518,65,0,0,0
11,0,0,0,0,3,518,63,0,0,0
12,0,0,0,0,0,519,65,0,0,0
13,0,0,0,0,0,518,63,0,0,0
14,0,0,0,0,0,514,65,0,0,0
15,0,0,0,0,3,511,63,0,0,0
0,0,0,0,0,0,513,65,0,0,0
1,0,0,0,0,0,506,63,0,0,0
2,0,0,0,0,0,502,65,0,0,0
3,0,0,0,0,3,500,63,0,0,0
4,0,0,0,0,0,495,65,0,0,0
5,0,0,0,0,0,497,65,0,0,0
6,0,0,0,0,0,497,63,0,0,0
7,0,0,0,0,3,503,65,0,0,0
8,0,0,0,0,0,514,64,0,0,0
9,0,0,0,0,0,518,65,0,0,0
10,0,0,0,0,0,516,64,0,0,0
11,0,0,0,0,3,507,66,0,0,0
12,0,0,0,0,0,507,63,0,0,0
13,0,0,0,0,0,507,64,0,0,0
14,0,0,0,0,0,508,66,0,0,0
15,0,0,0,0,1,497,66,0,0,0
0,0,0,0,0,0,435,65,0,0,0
1,0,0,0,0,0,443,63,0,0,0
2,0,0,0,0,0,528,66,0,0,0
3,0,0,0,0,3,562,66,0,0,0
4,0,0,0,0,0,496,64,0,0,0
5,0,0,0,0,0,495,64,0,0,0
6,0,0,0,0,0,508,66,0,0,0
7,0,0,0,0,3,511,63,0,0,0
8,0,0,0,0,0,511,66,0,0,0
9,0,0,0,0,0,508,64,0,0,0
10,0,0,0,0,0,507,66,0,0,0
11,0,0,0,0,3,507,65,0,0,0
12,0,0,0,0,0,509,66,0,0,0
13,0,0,0,0,0,505,65,0,0,0
14,0,0,0,0,0,504,66,0,0,0
15,0,0,0,0,3,502,66,0,0,0
0,0,0,0,0,0,499,64,0,0,0
1,0,0,0,0,0,496,66,0,0,0
2,0,0,0,0,0,493,65,0,0,0
3,0,0,0,0,3,492,66,0,0,0
4,0,0,0,0,0,490,65,0,0,0
5,0,0,0,0,0,488,66,0,0,0
6,0,0,0,0,0,487,65,0,0,0
7,0,0,0,0,3,489,66,0,0,0
8,0,0,0,0,0,491,66,0,0,0
9,0,0,0,0,0,493,65,0,0,0
10,0,0,0,0,0,505,67,0,0,0
11,0,0,0,0,3,510,64,0,0,0
12,0,0,0,0,0,519,64,0,0,0
13,0,0,0,0,0,523,67,0,0,0
14,0,0,0,0,0,526,65,0,0,0
15,0,0,0,0,3,523,67,0,0,0
0,0,0,0,0,0,519,65,0,0,0
1,0,0,0,0,0,518,65,0,0,0
2,0,0,0,0,0,512,67,0,0,0
3,0,0,0,0,3,512,67,0,0,0
4,0,0,0,0,0,514,66,0,0,0
5,0,0,0,0,0,511,64,0,0,0
6,0,0,0,0,0,508,67,0,0,0
7,0,0,0,0,3,505,66,0,0,0
8,0,0,0,0,0,507,66,0,0,0
9,0,0,0,0,0,506,67,0,0,0
10,0,0,0,0,0,508,65,0,0,0
11,0,0,0,0,1,508,67,0,0,0
12,0,0,0,0,0,507,65,0,0,0
13,0,0,0,0,0,508,67,0,0,0
14,0,0,0,0,0,509,65,0,0,0
15,0,0,0,0,3,504,67,0,0,0
0,0,0,0,0,0,503,67,0,0,0
1,0,0,0,0,0,500,67,0,0,0
2,0,0,0,0,0,503,65,0,0,0
3,0,0,0,0,3,505,67,0,0,0
4,0,0,0,0,0,501,65,0,0,0
5,0,0,0,0,0,500,66,0,0,0
6,0,0,0,0,0,501,67,0,0,0
7,0,0,0,0,3,493,65,0,0,0
8,0,0,0,0,0,496,67,0,0,0
9,0,0,0,0,0,496,65,0,0,0
10,0,0,0,0,0,499,67,0,0,0
11,0,0,0,0,3,509,65,0,0,0
12,0,0,0,0,0,516,67,0,0,0
13,0,0,0,0,0,515,66,0,0,0
14,0,0,0,0,0,513,67,0,0,0
15,0,0,0,0,1,513,68,0,0,0
0,0,0,0,0,0,512,66,0,0,0
1,0,0,0,0,0,511,67,0,0,0
2,0,0,0,0,0,511,65,0,0,0
3,0,0,0,0,3,478,68,0,0,0
4,0,0,0,0,0,434,67,0,0,0
5,0,0,0,0,0,485,67,0,0,0
6,0,0,0,0,0,572,67,0,0,0
7,0,0,0,0,3,540,68,0,0,0
8,0,0,0,0,0,500,68,0,0,0
9,0,0,0,0,0,511,68,0,0,0
10,0,0,0,0,0,514,68,0,0,0
11,0,0,0,0,3,512,67,0,0,0
12,0,0,0,0,0,513,68,0,0,0
13,0,0,0,0,0,509,67,0,0,0
14,0,0,0,0,0,508,68,0,0,0
15,0,0,0,0,3,504,67,0,0,0
0,0,0,0,0,0,504,68,0,0,0
1,0,0,0,0,0,502,68,0,0,0
2,0,0,0,0,0,504,68,0,0,0
3,0,0,0,0,3,497,69,0,0,0
4,0,0,0,0,0,499,69,0,0,0
5,0,0,0,0,0,499,68,0,0,0
6,0,0,0,0,0,501,67,0,0,0
7,0,0,0,0,3,499,68,0,0,0
8,0,0,0,0,0,495,69,0,0,0
9,0,0,0,0,0,489,69,0,0,0
10,0,0,0,0,0,490,70,0,0,0
11,0,0,0,0,3,484,68,0,0,0
12,0,0,0,0,0,487,69,0,0,0
13,0,0,0,0,0,495,69,0,0,0
14,0,0,0,0,0,503,70,0,0,0
15,0,0,0,0,3,512,67,0,0,0
0,0,0,0,0,0,521,67,0,0,0
1,0,0,0,0,0,526,68,0,0,0
2,0,0,0,0,0,529,70,0,0,0
3,0,0,0,0,3,531,70,0,0,0
4,0,0,0,0,0,533,70,0,0,0
5,0,0,0,0,0,528,70,0,0,0
6,0,0,0,0,0,523,69,0,0,0
7,0,0,0,0,3,518,70,0,0,0
8,0,0,0,0,0,521,69,0,0,0
9,0,0,0,0,0,517,70,0,0,0
10,0,0,0,0,0,516,68,0,0,0
11,0,0,0,0,0,512,70,0,0,0
12,0,0,0,0,0,512,70,0,0,0
13,0,0,0,0,0,513,69,0,0,0
14,0,0,0,0,0,516,70,0,0,0
15,0,0,0,0,3,515,70,0,0,0
0,0,0,0,0,0,517,68,0,0,0
1,0,0,0,0,0,515,70,0,0,0
2,0,0,0,0,0,518,68,0,0,0
3,0,0,0,0,3,519,71,0,0,0
4,0,0,0,0,0,520,68,0,0,0
5,0,0,0,0,0,521,71,0,0,0
6,0,0,0,0,0,521,70,0,0,0
7,0,0,0,0,3,522,70,0,0,0
8,0,0,0,0,0,515,71,0,0,0
9,0,0,0,0,0,510,70,0,0,0
10,0,0,0,0,0,507,70,0,0,0
11,0,0,0,0,3,500,71,0,0,0
12,0,0,0,0,0,503,69,0,0,0
13,0,0,0,0,0,504,71,0,0,0
14,0,0,0,0,0,511,71,0,0,0
15,0,0,0,0,3,521,69,0,0,0
0,0,0,0,0,0,527,70,0,0,0
1,0,0,0,0,0,529,71,0,0,0
2,0,0,0,0,0,531,71,0,0,0
3,0,0,0,0,3,525,69,0,0,0
4,0,0,0,0,0,526,71,0,0,0
5,0,0,0,0,0,529,71,0,0,0
6,0,0,0,0,0,521,72,0,0,0
7,0,0,0,0,3,460,71,0,0,0
8,0,0,0,0,1,444,70,0,0,0
9,0,0,0,0,0,519,72,0,0,0
10,0,0,0,0,0,588,71,0,0,0
11,0,0,0,0,3,517,72,0,0,0
12,0,0,0,0,0,514,72,0,0,0
13,0,0,0,0,0,527,73,0,0,0
14,0,0,0,0,0,530,71,0,0,0
15,0,0,0,0,3,527,73,0,0,0
0,0,0,0,0,0,527,72,0,0,0
1,0,0,0,0,0,524,71,0,0,0
2,0,0,0,0,0,522,73,0,0,0
3,0,0,0,0,3,522,71,0,0,0
4,0,0,0,0,0,524,73,0,0,0
5,0,0,0,0,0,520,72,0,0,0
6,0,0,0,0,0,520,73,0,0,0
7,0,0,0,0,1,512,72,0,0,0
8,0,0,0,0,0,504,73,0,0,0
9,0,0,0,0,0,504,73,0,0,0
10,0,0,0,0,0,502,72,0,0,0
11,0,0,0,0,3,497,71,0,0,0
12,0,0,0,0,0,495,74,0,0,0
13,0,0,0,0,0,489,73,0,0,0
14,0,0,0,0,0,488,72,0,0,0
15,0,0,0,0,3,488,74,0,0,0
0,0,0,0,0,0,492,74,0,0,0
1,0,0,0,0,0,497,73,0,0,0
2,0,0,0,0,0,508,74,0,0,0
3,0,0,0,0,3,521,74,0,0,0
4,0,0,0,0,0,528,73,0,0,0
5,0,0,0,0,0,528,73,0,0,0
6,0,0,0,0,1,530,74,0,0,0
7,0,0,0,0,3,533,72,0,0,0
8,0,0,0,0,0,531,75,0,0,0
9,0,0,0,0,0,524,72,0,0,0
10,0,0,0,0,0,526,73,0,0,0
11,0,0,0,0,3,522,72,0,0,0
12,0,0,0,0,1,523,75,0,0,0
13,0,0,0,0,0,522,75,0,0,0
14,0,0,0,0,0,519,74,0,0,0
15,0,0,0,0,3,516,74,0,0,0
0,0,0,0,0,0,515,72,0,0,0
1,0,0,0,0,0,515,72,0,0,0
2,0,0,0,0,0,517,75,0,0,0
3,0,0,0,0,3,519,74,0,0,0
4,0,0,0,0,0,515,73,0,0,0
5,0,0,0,0,0,513,75,0,0,0
6,0,0,0,0,0,514,75,0,0,0
7,0,0,0,0,3,514,75,0,0,0
8,0,0,0,0,0,514,75,0,0,0
9,0,0,0,0,0,513,74,0,0,0
10,0,0,0,0,0,517,73,0,0,0
11,0,0,0,0,3,513,75,0,0,0
12,0,0,0,0,0,509,72,0,0,0
13,0,0,0,0,0,509,75,0,0,0
14,0,0,0,0,0,505,75,0,0,0
15,0,0,0,0,3,502,73,0,0,0
0,0,0,0,0,0,505,75,0,0,0
1,0,0,0,0,0,507,75,0,0,0
2,0,0,0,0,0,519,73,0,0,0
3,0,0,0,0,0,527,75,0,0,0
4,0,0,0,0,1,527,75,0,0,0
5,0,0,0,0,0,524,73,0,0,0
6,0,0,0,0,0,523,75,0,0,0
7,0,0,0,0,3,518,75,0,0,0
8,0,0,0,0,0,523,75,0,0,0
9,0,0,0,0,0,521,75,0,0,0
10,0,0,0,0,0,493,74,0,0,0
11,0,0,0,0,3,426,75,0,0,0
12,0,0,0,0,0,467,74,0,0,0
13,0,0,0,0,0,557,73,0,0,0
14,0,0,0,0,0,544,73,0,0,0
15,0,0,0,0,3,500,73,0,0,0
0,0,0,0,0,0,516,75,0,0,0
1,0,0,0,0,0,519,75,0,0,0
2,0,0,0,0,0,517,74,0,0,0
3,0,0,0,0,3,519,74,0,0,0
4,0,0,0,0,0,515,75,0,0,0
5,0,0,0,0,0,513,74,0,0,0
6,0,0,0,0,0,512,74,0,0,0
7,0,0,0,0,3,514,75,0,0,0
8,0,0,0,0,0,515,72,0,0,0
9,0,0,0,0,0,511,75,0,0,0
10,0,0,0,0,0,507,75,0,0,0
11,0,0,0,0,3,503,73,0,0,0
12,0,0,0,0,1,504,75,0,0,0
13,0,0,0,0,0,496,74,0,0,0
14,0,0,0,0,0,492,72,0,0,0
15,0,0,0,0,3,492,75,0,0,0
0,0,0,0,0,1,491,73,0,0,0
1,0,0,0,0,0,488,73,0,0,0
2,0,0,0,0,0,491,75,0,0,0
3,0,0,0,0,3,488,73,0,0,0
4,0,0,0,0,0,494,75,0,0,0
5,0,0,0,0,0,501,74,0,0,0
6,0,0,0,0,0,511,75,0,0,0
7,0,0,0,0,3,516,75,0,0,0
8,0,0,0,0,1,520,75,0,0,0
9,0,0,0,0,0,523,72,0,0,0
10,0,0,0,0,0,525,75,0,0,0
11,0,0,0,0,3,523,74,0,0,0
12,0,0,0,0,0,523,75,0,0,0
13,0,0,0,0,0,518,73,0,0,0
14,0,0,0,0,1,517,74,0,0,0
15,0,0,0,0,1,515,73,0,0,0
0,0,0,0,0,0,512,72,0,0,0
1,0,0,0,0,0,512,74,0,0,0
2,0,0,0,0,0,512,75,0,0,0
3,0,0,0,0,3,507,73,0,0,0
4,0,0,0,0,0,506,75,0,0,0
5,0,0,0,0,0,507,74,0,0,0
6,0,0,0,0,0,510,72,0,0,0
7,0,0,0,0,3,511,74,0,0,0
8,0,0,0,0,0,515,73,0,0,0
9,0,0,0,0,0,515,74,0,0,0
10,0,0,0,0,1,517,72,0,0,0
11,0,0,0,0,3,517,74,0,0,0
12,0,0,0,0,0,519,72,0,0,0
13,0,0,0,0,0,518,74,0,0,0
14,0,0,0,0,0,513,72,0,0,0
15,0,0,0,0,3,506,74,0,0,0
0,0,0,0,0,0,501,74,0,0,0
1,0,0,0,0,0,499,74,0,0,0
2,0,0,0,0,0,502,73,0,0,0
3,0,0,0,0,3,502,73,0,0,0
4,0,0,0,0,0,508,74,0,0,0
5,0,0,0,0,0,515,74,0,0,0
6,0,0,0,0,0,524,74,0,0,0
7,0,0,0,0,3,517,71,0,0,0
8,0,0,0,0,0,514,74,0,0,0
9,0,0,0,0,0,513,72,0,0,0
10,0,0,0,0,0,516,74,0,0,0
11,0,0,0,0,3,515,73,0,0,0
12,0,0,0,0,1,517,72,0,0,0
13,0,0,0,0,0,478,74,0,0,0
14,0,0,0,0,0,427,73,0,0,0
15,0,0,0,0,3,472,72,0,0,0
0,0,0,0,0,0,569,73,0,0,0
1,0,0,0,0,0,532,71,0,0,0
2,0,0,0,0,0,499,74,0,0,0
3,0,0,0,0,3,515,72,0,0,0
4,0,0,0,0,0,515,71,0,0,0
5,0,0,0,0,0,512,71,0,0,0
6,0,0,0,0,0,515,72,0,0,0
7,0,0,0,0,3,512,73,0,0,0
8,0,0,0,0,1,512,72,0,0,0
9,0,0,0,0,0,511,72,0,0,0
10,0,0,0,0,0,515,73,0,0,0
11,0,0,0,0,1,515,73,0,0,0
12,0,0,0,0,0,514,73,0,0,0
13,0,0,0,0,0,512,73,0,0,0
14,0,0,0,0,0,511,72,0,0,0
15,0,0,0,0,3,507,73,0,0,0
0,0,0,0,0,0,506,72,0,0,0
1,0,0,0,0,0,499,72,0,0,0
2,0,0,0,0,0,492,73,0,0,0
3,0,0,0,0,3,486,71,0,0,0
4,0,0,0,0,0,486,72,0,0,0
5,0,0,0,0,0,487,71,0,0,0
6,0,0,0,0,0,493,72,0,0,0
7,0,0,0,0,3,496,70,0,0,0
8,0,0,0,0,0,506,72,0,0,0
9,0,0,0,0,0,515,71,0,0,0
10,0,0,0,0,0,527,71,0,0,0
11,0,0,0,0,3,534,72,0,0,0
12,0,0,0,0,0,538,70,0,0,0
13,0,0,0,0,0,535,71,0,0,0
14,0,0,0,0,0,535,71,0,0,0
15,0,0,0,0,3,527,70,0,0,0
0,0,0,0,0,0,523,70,0,0,0
1,0,0,0,0,0,519,71,0,0,0
2,0,0,0,0,0,519,71,0,0,0
3,0,0,0,0,3,519,70,0,0,0
4,0,0,0,0,0,515,71,0,0,0
5,0,0,0,0,0,511,70,0,0,0
6,0,0,0,0,0,515,71,0,0,0
7,0,0,0,0,3,514,69,0,0,0
8,0,0,0,0,0,516,71,0,0,0
9,0,0,0,0,0,514,69,0,0,0
10,0,0,0,0,0,511,71,0,0,0
11,0,0,0,0,3,513,68,0,0,0
12,0,0,0,0,0,513,70,0,0,0
13,0,0,0,0,0,510,70,0,0,0
14,0,0,0,0,0,509,70,0,0,0
15,0,0,0,0,3,500,69,0,0,0
0,0,0,0,0,0,499,70,0,0,0
1,0,0,0,0,0,497,68,0,0,0
2,0,0,0,0,0,492,70,0,0,0
3,0,0,0,0,3,494,67,0,0,0
4,0,0,0,0,0,501,68,0,0,0
5,0,0,0,0,0,499,69,0,0,0
6,0,0,0,0,0,512,70,0,0,0
7,0,0,0,0,0,519,69,0,0,0
8,0,0,0,0,1,521,70,0,0,0
9,0,0,0,0,0,515,69,0,0,0
10,0,0,0,0,0,516,67,0,0,0
11,0,0,0,0,3,515,69,0,0,0
12,0,0,0,0,0,515,67,0,0,0
13,0,0,0,0,0,510,69,0,0,0
14,0,0,0,0,0,469,67,0,0,0
15,0,0,0,0,3,423,69,0,0,0
0,0,0,0,0,0,479,68,0,0,0
1,0,0,0,0,0,568,67,0,0,0
2,0,0,0,0,0,527,69,0,0,0
3,0,0,0,0,3,494,69,0,0,0
4,0,0,0,0,0,511,69,0,0,0
5,0,0,0,0,0,510,67,0,0,0
6,0,0,0,0,0,511,67,0,0,0
7,0,0,0,0,3,508,68,0,0,0
8,0,0,0,0,0,506,68,0,0,0
9,0,0,0,0,0,503,68,0,0,0
10,0,0,0,0,0,501,68,0,0,0
11,0,0,0,0,1,504,66,0,0,0
12,0,0,0,0,0,505,68,0,0,0
13,0,0,0,0,0,499,66,0,0,0
14,0,0,0,0,0,498,68,0,0,0
15,0,0,0,0,3,497,66,0,0,0
0,0,0,0,0,0,500,68,0,0,0
1,0,0,0,0,0,496,66,0,0,0
2,0,0,0,0,0,493,68,0,0,0
3,0,0,0,0,3,489,65,0,0,0
4,0,0,0,0,0,487,67,0,0,0
5,0,0,0,0,0,484,66,0,0,0
6,0,0,0,0,0,489,65,0,0,0
7,0,0,0,0,3,495,67,0,0,0
8,0,0,0,0,0,498,67,0,0,0
9,0,0,0,0,0,504,67,0,0,0
10,0,0,0,0,0,514,67,0,0,0
11,0,0,0,0,3,520,65,0,0,0
12,0,0,0,0,0,529,65,0,0,0
13,0,0,0,0,0,525,67,0,0,0
14,0,0,0,0,0,525,66,0,0,0
15,0,0,0,0,3,520,65,0,0,0
0,0,0,0,0,0,518,65,0,0,0
1,0,0,0,0,0,511,67,0,0,0
2,0,0,0,0,0,510,67,0,0,0
3,0,0,0,0,3,511,66,0,0,0
4,0,0,0,0,0,507,66,0,0,0
5,0,0,0,0,0,507,64,0,0,0
6,0,0,0,0,0,507,66,0,0,0
7,0,0,0,0,3,505,66,0,0,0
8,0,0,0,0,0,507,65,0,0,0
9,0,0,0,0,0,510,64,0,0,0
10,0,0,0,0,0,513,66,0,0,0
11,0,0,0,0,3,506,66,0,0,0
12,0,0,0,0,0,510,65,0,0,0
13,0,0,0,0,0,510,66,0,0,0
14,0,0,0,0,0,510,66,0,0,0
15,0,0,0,0,3,510,66,0,0,0
0,0,0,0,0,0,509,63,0,0,0
1,0,0,0,0,0,508,65,0,0,0
2,0,0,0,0,0,509,64,0,0,0
3,0,0,0,0,3,504,63,0,0,0
4,0,0,0,0,0,500,65,0,0,0
5,0,0,0,0,0,502,63,0,0,0
6,0,0,0,0,0,504,65,0,0,0
7,0,0,0,0,0,511,65,0,0,0
8,0,0,0,0,0,517,64,0,0,0
9,0,0,0,0,0,519,65,0,0,0
10,0,0,0,0,0,518,63,0,0,0
11,0,0,0,0,3,515,65,0,0,0
12,0,0,0,0,0,514,65,0,0,0
13,0,0,0,0,0,516,63,0,0,0
14,0,0,0,0,0,518,65,0,0,0
15,0,0,0,0,3,495,65,0,0,0
0,0,0,0,0,0,432,64,0,0,0
1,0,0,0,0,0,447,63,0,0,0
2,0,0,0,0,0,539,65,0,0,0
3,0,0,0,0,3,552,64,0,0,0
4,0,0,0,0,0,503,63,0,0,0
5,0,0,0,0,0,511,65,0,0,0
6,0,0,0,0,0,519,63,0,0,0
7,0,0,0,0,3,521,63,0,0,0
8,0,0,0,0,0,520,65,0,0,0
9,0,0,0,0,0,516,62,0,0,0
10,0,0,0,0,0,517,64,0,0,0
11,0,0,0,0,3,519,65,0,0,0
12,0,0,0,0,0,517,63,0,0,0
13,0,0,0,0,0,512,62,0,0,0
14,0,0,0,0,0,510,64,0,0,0
15,0,0,0,0,3,505,63,0,0,0
0,0,0,0,0,0,500,64,0,0,0
1,0,0,0,0,0,499,63,0,0,0
2,0,0,0,0,0,498,62,0,0,0
3,0,0,0,0,3,495,64,0,0,0
4,0,0,0,0,0,491,64,0,0,0
5,0,0,0,0,0,488,64,0,0,0
6,0,0,0,0,0,490,63,0,0,0
7,0,0,0,0,3,487,62,0,0,0
8,0,0,0,0,0,492,64,0,0,0
9,0,0,0,0,0,497,64,0,0,0
10,0,0,0,0,0,505,64,0,0,0
11,0,0,0,0,3,513,64,0,0,0
12,0,0,0,0,0,521,64,0,0,0
13,0,0,0,0,0,525,62,0,0,0
14,0,0,0,0,0,525,63,0,0,0
15,0,0,0,0,3,527,64,0,0,0
0,0,0,0,0,0,528,64,0,0,0
1,0,0,0,0,0,524,63,0,0,0
2,0,0,0,0,0,523,62,0,0,0
3,0,0,0,0,0,516,64,0,0,0
4,0,0,0,0,0,512,64,0,0,0
5,0,0,0,0,0,512,63,0,0,0
6,0,0,0,0,0,512,63,0,0,0
7,0,0,0,0,3,512,63,0,0,0
8,0,0,0,0,0,511,64,0,0,0
9,0,0,0,0,0,507,64,0,0,0
10,0,0,0,0,0,510,63,0,0,0
11,0,0,0,0,3,510,63,0,0,0
12,0,0,0,0,0,510,64,0,0,0
13,0,0,0,0,0,512,65,0,0,0
14,0,0,0,0,0,511,64,0,0,0
15,0,0,0,0,3,511,63,0,0,0
0,0,0,0,0,0,511,62,0,0,0
1,0,0,0,0,0,509,65,0,0,0
2,0,0,0,0,0,511,64,0,0,0
3,0,0,0,0,3,508,64,0,0,0
4,0,0,0,0,0,503,64,0,0,0
5,0,0,0,0,0,503,64,0,0,0
6,0,0,0,0,0,500,63,0,0,0
7,0,0,0,0,3,494,62,0,0,0
8,0,0,0,0,0,499,64,0,0,0
9,0,0,0,0,0,503,64,0,0,0
10,0,0,0,0,0,512,63,0,0,0
11,0,0,0,0,3,517,64,0,0,0
12,0,0,0,0,0,526,64,0,0,0
13,0,0,0,0,0,520,63,0,0,0
14,0,0,0,0,0,522,63,0,0,0
15,0,0,0,0,3,522,64,0,0,0
0,0,0,0,0,0,523,62,0,0,0
1,0,0,0,0,0,527,64,0,0,0
2,0,0,0,0,0,502,64,0,0,0
3,0,0,0,0,3,427,62,0,0,0
4,0,0,0,0,0,442,64,0,0,0
5,0,0,0,0,0,536,63,0,0,0
6,0,0,0,0,0,556,63,0,0,0
7,0,0,0,0,3,491,64,0,0,0
8,0,0,0,0,0,515,63,0,0,0
9,0,0,0,0,0,518,63,0,0,0
10,0,0,0,0,0,520,64,0,0,0
11,0,0,0,0,3,515,64,0,0,0
12,0,0,0,0,0,511,64,0,0,0
13,0,0,0,0,0,509,62,0,0,0
14,0,0,0,0,0,505,65,0,0,0
15,0,0,0,0,0,507,62,0,0,0
0,0,0,0,0,0,505,64,0,0,0
1,0,0,0,0,0,501,64,0,0,0
2,0,0,0,0,0,499,63,0,0,0
3,0,0,0,0,3,497,64,0,0,0
4,0,0,0,0,0,500,62,0,0,0
5,0,0,0,0,0,497,64,0,0,0
6,0,0,0,0,0,498,64,0,0,0
7,0,0,0,0,3,493,63,0,0,0
8,0,0,0,0,0,489,64,0,0,0
9,0,0,0,0,0,485,62,0,0,0
10,0,0,0,0,0,483,65,0,0,0
11,0,0,0,0,3,484,63,0,0,0
12,0,0,0,0,0,489,65,0,0,0
13,0,0,0,0,0,494,62,0,0,0
14,0,0,0,0,0,504,64,0,0,0
15,0,0,0,0,3,511,63,0,0,0
0,0,0,0,0,0,514,64,0,0,0
1,0,0,0,0,0,524,63,0,0,0
2,0,0,0,0,0,527,65,0,0,0
3,0,0,0,0,3,523,63,0,0,0
4,0,0,0,0,0,527,64,0,0,0
5,0,0,0,0,0,526,62,0,0,0
6,0,0,0,0,0,526,63,0,0,0
7,0,0,0,0,3,523,64,0,0,0
8,0,0,0,0,0,522,63,0,0,0
9,0,0,0,0,0,518,64,0,0,0
10,0,0,0,0,0,519,63,0,0,0
11,0,0,0,0,3,513,64,0,0,0
12,0,0,0,0,0,512,63,0,0,0
13,0,0,0,0,0,514,62,0,0,0
14,0,0,0,0,0,514,64,0,0,0
15,0,0,0,0,3,513,64,0,0,0
0,0,0,0,0,0,512,62,0,0,0
1,0,0,0,0,0,510,64,0,0,0
2,0,0,0,0,0,507,63,0,0,0
3,0,0,0,0,3,508,64,0,0,0
4,0,0,0,0,0,512,62,0,0,0
5,0,0,0,0,0,509,64,0,0,0
6,0,0,0,0,0,512,63,0,0,0
7,0,0,0,0,3,509,64,0,0,0
8,0,0,0,0,0,506,63,0,0,0
9,0,0,0,0,0,501,64,0,0,0
10,0,0,0,0,0,501,62,0,0,0
11,0,0,0,0,0,496,64,0,0,0
12,0,0,0,0,0,498,64,0,0,0
13,0,0,0,0,0,496,63,0,0,0
14,0,0,0,0,0,507,64,0,0,0
15,0,0,0,0,3,512,62,0,0,0
0,0,0,0,0,0,518,62,0,0,0
1,0,0,0,0,0,511,63,0,0,0
2,0,0,0,0,0,509,64,0,0,0
3,0,0,0,0,3,508,62,0,0,0
4,0,0,0,0,0,511,64,0,0,0
5,0,0,0,0,0,514,63,0,0,0
6,0,0,0,0,0,500,62,0,0,0
7,0,0,0,0,3,430,62,0,0,0
8,0,0,0,0,0,441,63,0,0,0
9,0,0,0,0,0,526,64,0,0,0
10,0,0,0,0,0,560,62,0,0,0
11,0,0,0,0,3,496,64,0,0,0
12,0,0,0,0,0,503,62,0,0,0
13,0,0,0,0,0,515,64,0,0,0
14,0,0,0,0,0,520,62,0,0,0
15,0,0,0,0,3,517,64,0,0,0
0,0,0,0,0,0,517,63,0,0,0
1,0,0,0,0,0,512,63,0,0,0
2,0,0,0,0,0,511,64,0,0,0
3,0,0,0,0,3,515,64,0,0,0
4,0,0,0,0,0,517,63,0,0,0
5,0,0,0,0,0,515,63,0,0,0
6,0,0,0,0,0,517,64,0,0,0
7,0,0,0,0,3,515,64,0,0,0
8,0,0,0,0,0,516,62,0,0,0
9,0,0,0,0,0,514,64,0,0,0
10,0,0,0,0,0,514,64,0,0,0
11,0,0,0,0,3,509,62,0,0,0
12,0,0,0,0,0,500,63,0,0,0
13,0,0,0,0,0,497,64,0,0,0
14,0,0,0,0,0,499,63,0,0,0
15,0,0,0,0,3,500,64,0,0,0
0,0,0,0,0,0,509,62,0,0,0
1,0,0,0,0,0,515,64,0,0,0
2,0,0,0,0,0,525,64,0,0,0
3,0,0,0,0,3,532,63,0,0,0
4,0,0,0,0,0,538,64,0,0,0
5,0,0,0,0,0,537,64,0,0,0
6,0,0,0,0,0,536,63,0,0,0
7,0,0,0,0,0,532,64,0,0,0
8,0,0,0,0,0,532,64,0,0,0
9,0,0,0,0,0,526,62,0,0,0
10,0,0,0,0,0,523,65,0,0,0
11,0,0,0,0,3,525,63,0,0,0
12,0,0,0,0,0,524,64,0,0,0
13,0,0,0,0,0,523,64,0,0,0
14,0,0,0,0,0,520,63,0,0,0
15,0,0,0,0,3,520,63,0,0,0
0,0,0,0,0,0,523,63,0,0,0
1,0,0,0,0,0,523,63,0,0,0
2,0,0,0,0,0,526,65,0,0,0
3,0,0,0,0,3,526,64,0,0,0
4,0,0,0,0,0,526,64,0,0,0
5,0,0,0,0,0,526,64,0,0,0
6,0,0,0,0,0,526,65,0,0,0
7,0,0,0,0,3,524,62,0,0,0
8,0,0,0,0,0,521,65,0,0,0
9,0,0,0,0,0,515,64,0,0,0
10,0,0,0,0,0,517,65,0,0,0
11,0,0,0,0,3,516,65,0,0,0
12,0,0,0,0,0,512,64,0,0,0
13,0,0,0,0,0,510,62,0,0,0
14,0,0,0,0,0,517,65,0,0,0
15,0,0,0,0,3,516,63,0,0,0
0,0,0,0,0,0,526,64,0,0,0
1,0,0,0,0,0,534,63,0,0,0
2,0,0,0,0,0,535,65,0,0,0
3,0,0,0,0,3,531,63,0,0,0
4,0,0,0,0,0,529,63,0,0,0
5,0,0,0,0,0,527,65,0,0,0
6,0,0,0,0,0,531,65,0,0,0
7,0,0,0,0,3,531,63,0,0,0
8,0,0,0,0,0,500,65,0,0,0
9,0,0,0,0,0,451,64,0,0,0
10,0,0,0,0,0,489,63,0,0,0
11,0,0,0,0,3,572,65,0,0,0
12,0,0,0,0,0,552,63,0,0,0
13,0,0,0,0,0,510,65,0,0,0
14,0,0,0,0,0,526,63,0,0,0
15,0,0,0,0,3,527,65,0,0,0
0,0,0,0,0,0,528,63,0,0,0
1,0,0,0,0,0,528,64,0,0,0
2,0,0,0,0,0,528,65,0,0,0
3,0,0,0,0,0,527,63,0,0,0
4,0,0,0,0,0,525,65,0,0,0
5,0,0,0,0,0,523,63,0,0,0
6,0,0,0,0,0,521,65,0,0,0
7,0,0,0,0,3,516,63,0,0,0
8,0,0,0,0,0,517,65,0,0,0
9,0,0,0,0,0,512,64,0,0,0
10,0,0,0,0,0,510,63,0,0,0
11,0,0,0,0,3,500,65,0,0,0
12,0,0,0,0,0,499,63,0,0,0
13,0,0,0,0,0,492,64,0,0,0
14,0,0,0,0,0,489,65,0,0,0
15,0,0,0,0,3,490,63,0,0,0
0,0,0,0,0,0,489,65,0,0,0
1,0,0,0,0,0,490,65,0,0,0
2,0,0,0,0,0,494,63,0,0,0
3,0,0,0,0,3,499,65,0,0,0
4,0,0,0,0,0,513,63,0,0,0
5,0,0,0,0,0,519,65,0,0,0
6,0,0,0,0,0,520,63,0,0,0
7,0,0,0,0,0,521,65,0,0,0
8,0,0,0,0,0,523,65,0,0,0
9,0,0,0,0,0,523,63,0,0,0
10,0,0,0,0,0,521,66,0,0,0
11,0,0,0,0,3,515,64,0,0,0
12,0,0,0,0,0,514,63,0,0,0
13,0,0,0,0,0,514,65,0,0,0
14,0,0,0,0,0,514,63,0,0,0
15,0,0,0,0,3,512,65,0,0,0
0,0,0,0,0,0,513,65,0,0,0
1,0,0,0,0,0,507,65,0,0,0
2,0,0,0,0,0,507,63,0,0,0
3,0,0,0,0,3,508,63,0,0,0
4,0,0,0,0,0,511,63,0,0,0
5,0,0,0,0,0,507,65,0,0,0
6,0,0,0,0,0,511,63,0,0,0
7,0,0,0,0,3,509,63,0,0,0
8,0,0,0,0,0,507,63,0,0,0
9,0,0,0,0,0,505,65,0,0,0
10,0,0,0,0,0,508,65,0,0,0
11,0,0,0,0,3,504,65,0,0,0
12,0,0,0,0,0,504,63,0,0,0
13,0,0,0,0,0,501,65,0,0,0
14,0,0,0,0,0,501,64,0,0,0
15,0,0,0,0,3,496,63,0,0,0
0,0,0,0,0,0,501,64,0,0,0
1,0,0,0,0,0,506,65,0,0,0
2,0,0,0,0,0,512,65,0,0,0
3,0,0,0,0,3,519,65,0,0,0
4,0,0,0,0,0,523,63,0,0,0
5,0,0,0,0,0,526,65,0,0,0
6,0,0,0,0,0,523,65,0,0,0
7,0,0,0,0,3,521,63,0,0,0
8,0,0,0,0,0,524,63,0,0,0
9,0,0,0,0,0,527,63,0,0,0
10,0,0,0,0,0,527,65,0,0,0
11,0,0,0,0,3,463,65,0,0,0
12,0,0,0,0,0,433,63,0,0,0
13,0,0,0,0,0,502,65,0,0,0
14,0,0,0,0,0,583,64,0,0,0
15,0,0,0,0,3,522,64,0,0,0
0,0,0,0,0,0,507,64,0,0,0
1,0,0,0,0,0,516,63,0,0,0
2,0,0,0,0,0,521,65,0,0,0
3,0,0,0,0,1,518,63,0,0,0
4,0,0,0,0,0,516,65,0,0,0
5,0,0,0,0,0,515,65,0,0,0
6,0,0,0,0,0,511,63,0,0,0
7,0,0,0,0,3,512,65,0,0,0
8,0,0,0,0,0,515,64,0,0,0
9,0,0,0,0,0,511,64,0,0,0
10,0,0,0,0,0,510,64,0,0,0
11,0,0,0,0,3,505,63,0,0,0
12,0,0,0,0,0,503,62,0,0,0
13,0,0,0,0,0,498,65,0,0,0
14,0,0,0,0,0,496,63,0,0,0
15,0,0,0,0,3,495,64,0,0,0
0,0,0,0,0,0,492,65,0,0,0
1,0,0,0,0,0,489,63,0,0,0
2,0,0,0,0,0,487,63,0,0,0
3,0,0,0,0,3,486,64,0,0,0
4,0,0,0,0,0,492,63,0,0,0
5,0,0,0,0,0,497,64,0,0,0
6,0,0,0,0,0,505,62,0,0,0
7,0,0,0,0,3,512,65,0,0,0
8,0,0,0,0,0,519,63,0,0,0
9,0,0,0,0,0,522,63,0,0,0
10,0,0,0,0,0,525,64,0,0,0
11,0,0,0,0,3,523,64,0,0,0
12,0,0,0,0,0,522,62,0,0,0
13,0,0,0,0,0,523,64,0,0,0
14,0,0,0,0,0,524,63,0,0,0
15,0,0,0,0,3,519,64,0,0,0
0,0,0,0,0,1,516,63,0,0,0
1,0,0,0,0,0,514,64,0,0,0
2,0,0,0,0,0,515,62,0,0,0
3,0,0,0,0,3,512,64,0,0,0
4,0,0,0,0,0,510,62,0,0,0
5,0,0,0,0,0,507,64,0,0,0
6,0,0,0,0,0,512,63,0,0,0
7,0,0,0,0,3,507,63,0,0,0
8,0,0,0,0,0,508,62,0,0,0
9,0,0,0,0,0,508,64,0,0,0
10,0,0,0,0,0,509,63,0,0,0
11,0,0,0,0,3,512,62,0,0,0
12,0,0,0,0,0,511,64,0,0,0
13,0,0,0,0,0,512,62,0,0,0
14,0,0,0,0,0,511,63,0,0,0
15,0,0,0,0,1,511,62,0,0,0
0,0,0,0,0,0,510,63,0,0,0
1,0,0,0,0,0,508,63,0,0,0
2,0,0,0,0,0,508,62,0,0,0
3,0,0,0,0,3,503,63,0,0,0
4,0,0,0,0,0,502,63,0,0,0
5,0,0,0,0,0,500,63,0,0,0
6,0,0,0,0,0,497,62,0,0,0
7,0,0,0,0,3,491,63,0,0,0
8,0,0,0,0,0,497,62,0,0,0
9,0,0,0,0,0,500,62,0,0,0
10,0,0,0,0,0,512,61,0,0,0
11,0,0,0,0,3,519,62,0,0,0
12,0,0,0,0,0,521,63,0,0,0
13,0,0,0,0,0,519,61,0,0,0
14,0,0,0,0,0,516,62,0,0,0
15,0,0,0,0,3,516,61,0,0,0
0,0,0,0,0,0,522,63,0,0,0
1,0,0,0,0,0,524,62,0,0,0
2,0,0,0,0,0,498,62,0,0,0
3,0,0,0,0,3,435,61,0,0,0
4,0,0,0,0,0,470,62,0,0,0
5,0,0,0,0,0,562,62,0,0,0
6,0,0,0,0,0,557,60,0,0,0
7,0,0,0,0,3,507,62,0,0,0
8,0,0,0,0,0,521,62,0,0,0
9,0,0,0,0,0,525,61,0,0,0
10,0,0,0,0,0,526,62,0,0,0
11,0,0,0,0,3,522,60,0,0,0
12,0,0,0,0,0,518,62,0,0,0
13,0,0,0,0,0,515,61,0,0,0
14,0,0,0,0,0,516,60,0,0,0
15,0,0,0,0,3,515,62,0,0,0
0,0,0,0,0,0,513,60,0,0,0
1,0,0,0,0,0,510,62,0,0,0
2,0,0,0,0,0,508,60,0,0,0
3,0,0,0,0,3,503,62,0,0,0
4,0,0,0,0,0,500,61,0,0,0
5,0,0,0,0,0,499,61,0,0,0
6,0,0,0,0,0,495,62,0,0,0
7,0,0,0,0,3,488,62,0,0,0
8,0,0,0,0,0,485,62,0,0,0
9,0,0,0,0,0,481,60,0,0,0
10,0,0,0,0,0,480,62,0,0,0
11,0,0,0,0,0,482,60,0,0,0
12,0,0,0,0,0,486,60,0,0,0
13,0,0,0,0,0,492,62,0,0,0
14,0,0,0,0,0,505,62,0,0,0
15,0,0,0,0,3,515,62,0,0,0
0,0,0,0,0,0,520,60,0,0,0
1,0,0,0,0,0,527,62,0,0,0
2,0,0,0,0,0,528,61,0,0,0
3,0,0,0,0,3,526,62,0,0,0
4,0,0,0,0,0,528,60,0,0,0
5,0,0,0,0,0,527,61,0,0,0
6,0,0,0,0,0,526,62,0,0,0
7,0,0,0,0,3,521,59,0,0,0
8,0,0,0,0,0,520,59,0,0,0
9,0,0,0,0,0,516,61,0,0,0
10,0,0,0,0,0,516,62,0,0,0
11,0,0,0,0,3,508,59,0,0,0
12,0,0,0,0,0,511,60,0,0,0
13,0,0,0,0,0,508,60,0,0,0
14,0,0,0,0,0,511,61,0,0,0
15,0,0,0,0,3,511,61,0,0,0
0,0,0,0,0,0,515,61,0,0,0
1,0,0,0,0,0,515,61,0,0,0
2,0,0,0,0,0,513,59,0,0,0
3,0,0,0,0,3,514,60,0,0,0
4,0,0,0,0,0,512,61,0,0,0
5,0,0,0,0,0,513,59,0,0,0
6,0,0,0,0,0,510,61,0,0,0
7,0,0,0,0,3,508,59,0,0,0
8,0,0,0,0,0,507,61,0,0,0
9,0,0,0,0,0,505,61,0,0,0
10,0,0,0,0,0,505,60,0,0,0
11,0,0,0,0,3,502,59,0,0,0
12,0,0,0,0,0,503,58,0,0,0
13,0,0,0,0,0,502,59,0,0,0
14,0,0,0,0,0,500,61,0,0,0
15,0,0,0,0,3,499,60,0,0,0
0,0,0,0,0,0,499,60,0,0,0
1,0,0,0,0,0,493,60,0,0,0
2,0,0,0,0,0,497,58,0,0,0
3,0,0,0,0,3,499,60,0,0,0
4,0,0,0,0,0,508,60,0,0,0
5,0,0,0,0,0,518,58,0,0,0
6,0,0,0,0,0,523,61,0,0,0
7,0,0,0,0,0,520,59,0,0,0
8,0,0,0,0,0,516,60,0,0,0
9,0,0,0,0,0,518,60,0,0,0
10,0,0,0,0,0,520,58,0,0,0
11,0,0,0,0,3,524,60,0,0,0
12,0,0,0,0,0,506,60,0,0,0
13,0,0,0,0,0,434,58,0,0,0
14,0,0,0,0,0,431,58,0,0,0
15,0,0,0,0,3,519,60,0,0,0
0,0,0,0,0,0,567,58,0,0,0
1,0,0,0,0,0,503,59,0,0,0
2,0,0,0,0,0,509,60,0,0,0
3,0,0,0,0,3,514,58,0,0,0
4,0,0,0,0,0,515,59,0,0,0
5,0,0,0,0,0,512,58,0,0,0
6,0,0,0,0,0,512,60,0,0,0
7,0,0,0,0,3,509,57,0,0,0
8,0,0,0,0,0,506,58,0,0,0
9,0,0,0,0,0,510,58,0,0,0
10,0,0,0,0,0,513,58,0,0,0
11,0,0,0,0,3,510,60,0,0,0
12,0,0,0,0,0,507,57,0,0,0
13,0,0,0,0,0,502,60,0,0,0
14,0,0,0,0,0,500,57,0,0,0
15,0,0,0,0,3,496,60,0,0,0
0,0,0,0,0,0,491,58,0,0,0
1,0,0,0,0,0,487,60,0,0,0
2,0,0,0,0,0,481,58,0,0,0
3,0,0,0,0,3,478,59,0,0,0
4,0,0,0,0,0,474,59,0,0,0
5,0,0,0,0,0,475,57,0,0,0
6,0,0,0,0,0,480,59,0,0,0
7,0,0,0,0,3,491,57,0,0,0
8,0,0,0,0,0,501,57,0,0,0
9,0,0,0,0,0,508,59,0,0,0
10,0,0,0,0,0,517,58,0,0,0
11,0,0,0,0,3,520,59,0,0,0
12,0,0,0,0,0,521,57,0,0,0
13,0,0,0,0,0,522,60,0,0,0
14,0,0,0,0,0,523,58,0,0,0
15,0,0,0,0,3,517,59,0,0,0
0,0,0,0,0,0,513,57,0,0,0
1,0,0,0,0,0,510,59,0,0,0
2,0,0,0,0,0,515,56,0,0,0
3,0,0,0,0,1,508,59,0,0,0
4,0,0,0,0,0,511,59,0,0,0
5,0,0,0,0,0,512,59,0,0,0
6,0,0,0,0,0,512,59,0,0,0
7,0,0,0,0,3,515,58,0,0,0
8,0,0,0,0,0,511,59,0,0,0
9,0,0,0,0,0,512,56,0,0,0
10,0,0,0,0,0,514,59,0,0,0
11,0,0,0,0,3,514,58,0,0,0
12,0,0,0,0,0,516,57,0,0,0
13,0,0,0,0,0,516,59,0,0,0
14,0,0,0,0,0,519,57,0,0,0
15,0,0,0,0,3,518,58,0,0,0
0,0,0,0,0,0,516,59,0,0,0
1,0,0,0,0,0,515,57,0,0,0
2,0,0,0,0,0,516,58,0,0,0
3,0,0,0,0,3,516,59,0,0,0
4,0,0,0,0,0,515,58,0,0,0
5,0,0,0,0,0,511,56,0,0,0
6,0,0,0,0,0,512,57,0,0,0
7,0,0,0,0,3,508,58,0,0,0
8,0,0,0,0,0,503,57,0,0,0
9,0,0,0,0,0,499,57,0,0,0
10,0,0,0,0,0,492,57,0,0,0
11,0,0,0,0,3,497,57,0,0,0
12,0,0,0,0,0,499,57,0,0,0
13,0,0,0,0,0,504,58,0,0,0
14,0,0,0,0,0,513,57,0,0,0
15,0,0,0,0,3,518,58,0,0,0
0,0,0,0,0,0,513,56,0,0,0
1,0,0,0,0,0,511,59,0,0,0
2,0,0,0,0,0,514,57,0,0,0
3,0,0,0,0,3,513,58,0,0,0
4,0,0,0,0,0,518,56,0,0,0
5,0,0,0,0,0,505,58,0,0,0
6,0,0,0,0,0,439,56,0,0,0
7,0,0,0,0,3,435,58,0,0,0
8,0,0,0,0,0,512,58,0,0,0
9,0,0,0,0,0,573,57,0,0,0
10,0,0,0,0,0,507,56,0,0,0
11,0,0,0,0,3,501,58,0,0,0
12,0,0,0,0,0,516,57,0,0,0
13,0,0,0,0,0,518,56,0,0,0
14,0,0,0,0,0,515,58,0,0,0
15,0,0,0,0,0,510,57,0,0,0
0,0,0,0,0,0,512,57,0,0,0
1,0,0,0,0,0,512,57,0,0,0
2,0,0,0,0,0,513,57,0,0,0
3,0,0,0,0,3,514,58,0,0,0
4,0,0,0,0,0,515,57,0,0,0
5,0,0,0,0,0,512,57,0,0,0
6,0,0,0,0,0,508,56,0,0,0
7,0,0,0,0,3,508,57,0,0,0
8,0,0,0,0,0,507,56,0,0,0
9,0,0,0,0,0,501,58,0,0,0
10,0,0,0,0,0,497,56,0,0,0
11,0,0,0,0,3,492,57,0,0,0
12,0,0,0,0,0,495,55,0,0,0
13,0,0,0,0,0,492,57,0,0,0
14,0,0,0,0,0,496,56,0,0,0
15,0,0,0,0,3,496,57,0,0,0
0,0,0,0,0,0,502,57,0,0,0
1,0,0,0,0,0,509,56,0,0,0
2,0,0,0,0,0,515,57,0,0,0
3,0,0,0,0,0,521,56,0,0,0
4,0,0,0,0,0,525,57,0,0,0
5,0,0,0,0,0,523,56,0,0,0
6,0,0,0,0,0,523,57,0,0,0
7,0,0,0,0,3,518,57,0,0,0
8,0,0,0,0,0,516,56,0,0,0
9,0,0,0,0,0,515,56,0,0,0
10,0,0,0,0,0,514,57,0,0,0
11,0,0,0,0,3,510,55,0,0,0
12,0,0,0,0,0,510,57,0,0,0
13,0,0,0,0,0,507,56,0,0,0
14,0,0,0,0,0,504,57,0,0,0
15,0,0,0,0,3,504,57,0,0,0
0,0,0,0,0,0,505,55,0,0,0
1,0,0,0,0,0,507,57,0,0,0
2,0,0,0,0,0,510,56,0,0,0
3,0,0,0,0,3,509,57,0,0,0
4,0,0,0,0,0,509,55,0,0,0
5,0,0,0,0,0,508,57,0,0,0
6,0,0,0,0,0,511,54,0,0,0
7,0,0,0,0,3,511,57,0,0,0
8,0,0,0,0,0,513,55,0,0,0
9,0,0,0,0,0,509,56,0,0,0
10,0,0,0,0,0,511,56,0,0,0
11,0,0,0,0,3,512,56,0,0,0
12,0,0,0,0,0,516,56,0,0,0
13,0,0,0,0,0,512,54,0,0,0
14,0,0,0,0,0,515,56,0,0,0
15,0,0,0,0,3,512,56,0,0,0
0,0,0,0,0,0,515,55,0,0,0
1,0,0,0,0,0,512,56,0,0,0
2,0,0,0,0,0,511,55,0,0,0
3,0,0,0,0,3,509,56,0,0,0
4,0,0,0,0,0,507,56,0,0,0
5,0,0,0,0,0,503,54,0,0,0
6,0,0,0,0,0,504,55,0,0,0
7,0,0,0,0,3,503,55,0,0,0
8,0,0,0,0,0,506,56,0,0,0
9,0,0,0,0,0,515,54,0,0,0
10,0,0,0,0,0,523,56,0,0,0
11,0,0,0,0,3,519,56,0,0,0
12,0,0,0,0,0,520,54,0,0,0
13,0,0,0,0,0,519,56,0,0,0
14,0,0,0,0,0,523,55,0,0,0
15,0,0,0,0,0,527,56,0,0,0
0,0,0,0,0,0,507,54,0,0,0
1,0,0,0,0,0,436,56,0,0,0
2,0,0,0,0,0,452,56,0,0,0
3,0,0,0,0,3,538,56,0,0,0
4,0,0,0,0,0,565,55,0,0,0
5,0,0,0,0,0,505,55,0,0,0
6,0,0,0,0,0,512,56,0,0,0
7,0,0,0,0,3,524,55,0,0,0
8,0,0,0,0,0,525,56,0,0,0
9,0,0,0,0,0,523,56,0,0,0
10,0,0,0,0,0,522,54,0,0,0
11,0,0,0,0,3,518,56,0,0,0
12,0,0,0,0,0,518,54,0,0,0
13,0,0,0,0,0,515,56,0,0,0
14,0,0,0,0,0,513,55,0,0,0
15,0,0,0,0,3,509,54,0,0,0
0,0,0,0,0,0,506,56,0,0,0
1,0,0,0,0,0,506,54,0,0,0
2,0,0,0,0,0,502,55,0,0,0
3,0,0,0,0,3,498,56,0,0,0
4,0,0,0,0,0,496,54,0,0,0
5,0,0,0,0,0,491,56,0,0,0
6,0,0,0,0,0,488,55,0,0,0
7,0,0,0,0,3,485,55,0,0,0
8,0,0,0,0,1,486,55,0,0,0
9,0,0,0,0,0,484,55,0,0,0
10,0,0,0,0,0,486,54,0,0,0
11,0,0,0,0,3,486,55,0,0,0
12,0,0,0,0,0,492,56,0,0,0
13,0,0,0,0,0,495,54,0,0,0
14,0,0,0,0,0,499,55,0,0,0
15,0,0,0,0,3,496,53,0,0,0
0,0,0,0,0,0,499,55,0,0,0
1,0,0,0,0,0,497,53,0,0,0
2,0,0,0,0,0,495,56,0,0,0
3,0,0,0,0,3,487,55,0,0,0
4,0,0,0,0,0,491,53,0,0,0
5,0,0,0,0,0,490,55,0,0,0
6,0,0,0,0,0,490,55,0,0,0
7,0,0,0,0,3,490,53,0,0,0
8,0,0,0,0,0,489,55,0,0,0
9,0,0,0,0,0,487,53,0,0,0
10,0,0,0,0,0,489,55,0,0,0
11,0,0,0,0,0,491,55,0,0,0
12,0,0,0,0,0,496,53,0,0,0
13,0,0,0,0,0,499,55,0,0,0
14,0,0,0,0,0,504,54,0,0,0
15,0,0,0,0,3,508,53,0,0,0
0,0,0,0,0,0,512,53,0,0,0
1,0,0,0,0,0,515,54,0,0,0
2,0,0,0,0,0,518,55,0,0,0
3,0,0,0,0,3,520,53,0,0,0
4,0,0,0,0,0,524,55,0,0,0
5,0,0,0,0,0,530,53,0,0,0
6,0,0,0,0,0,537,55,0,0,0
7,0,0,0,0,3,541,53,0,0,0
8,0,0,0,0,0,543,55,0,0,0
9,0,0,0,0,0,546,53,0,0,0
10,0,0,0,0,0,548,55,0,0,0
11,0,0,0,0,3,545,55,0,0,0
12,0,0,0,0,0,551,52,0,0,0
13,0,0,0,0,0,545,53,0,0,0
14,0,0,0,0,0,546,55,0,0,0
15,0,0,0,0,3,546,52,0,0,0
0,0,0,0,0,0,543,54,0,0,0
1,0,0,0,0,0,545,55,0,0,0
2,0,0,0,0,0,548,53,0,0,0
3,0,0,0,0,3,552,52,0,0,0
4,0,0,0,0,0,556,52,0,0,0
5,0,0,0,0,0,553,55,0,0,0
6,0,0,0,0,0,546,52,0,0,0
7,0,0,0,0,3,539,54,0,0,0
8,0,0,0,0,0,537,55,0,0,0
9,0,0,0,0,0,537,54,0,0,0
10,0,0,0,0,0,543,54,0,0,0
11,0,0,0,0,3,518,53,0,0,0
12,0,0,0,0,0,446,54,0,0,0
13,0,0,0,0,0,458,54,0,0,0
14,0,0,0,0,0,552,52,0,0,0
15,0,0,0,0,3,578,55,0,0,0
0,0,0,0,0,0,518,52,0,0,0
1,0,0,0,0,0,523,55,0,0,0
2,0,0,0,0,0,527,53,0,0,0
3,0,0,0,0,3,526,54,0,0,0
4,0,0,0,0,0,524,53,0,0,0
5,0,0,0,0,0,516,54,0,0,0
6,0,0,0,0,0,512,53,0,0,0
7,0,0,0,0,1,507,54,0,0,0
8,0,0,0,0,0,507,54,0,0,0
9,0,0,0,0,0,507,52,0,0,0
10,0,0,0,0,0,508,54,0,0,0
11,0,0,0,0,3,502,53,0,0,0
12,0,0,0,0,0,498,53,0,0,0
13,0,0,0,0,0,493,53,0,0,0
14,0,0,0,0,0,495,54,0,0,0
15,0,0,0,0,3,491,52,0,0,0
0,0,0,0,0,0,489,54,0,0,0
1,0,0,0,0,0,489,51,0,0,0
2,0,0,0,0,0,483,54,0,0,0
3,0,0,0,0,3,483,54,0,0,0
4,0,0,0,0,0,481,52,0,0,0
5,0,0,0,0,0,483,54,0,0,0
6,0,0,0,0,0,492,52,0,0,0
7,0,0,0,0,3,503,54,0,0,0
